AB,AFIB,AFL,B,IVR,N,NOD,P,PREX,SBR,SVTA,T,VFL,VT
0.0,39.56386292834891,6.896551724137931,58.76288659793815,40.0,80.30242737763629,12.5,97.73584905660377,76.92307692307693,94.44444444444444,0.0,8.695652173913043,66.66666666666666,25.0
0.0,77.25856697819314,58.620689655172406,15.463917525773196,0.0,81.93394349383207,37.5,93.58490566037736,26.923076923076923,79.16666666666666,14.285714285714285,21.73913043478261,16.666666666666664,50.0
0.0,64.797507788162,13.793103448275861,3.0927835051546393,40.0,90.72821329088738,0.0,90.56603773584906,0.0,88.88888888888889,14.285714285714285,67.3913043478261,66.66666666666666,50.0
0.0,55.140186915887845,6.896551724137931,61.855670103092784,20.0,94.82690011937923,0.0,86.79245283018868,15.384615384615385,91.66666666666666,14.285714285714285,0.0,83.33333333333334,25.0
0.0,68.84735202492212,24.137931034482758,12.371134020618557,0.0,90.48945483485873,12.5,95.09433962264151,0.0,86.11111111111111,14.285714285714285,6.521739130434782,83.33333333333334,0.0
0.0,68.22429906542055,6.896551724137931,16.49484536082474,20.0,90.25069637883009,12.5,96.22641509433963,0.0,95.83333333333334,42.857142857142854,47.82608695652174,50.0,75.0
0.0,37.69470404984423,0.0,10.309278350515463,0.0,92.39952248308795,37.5,95.84905660377359,73.07692307692307,98.61111111111111,14.285714285714285,2.1739130434782608,83.33333333333334,75.0
0.0,37.38317757009346,3.4482758620689653,39.175257731958766,0.0,96.73696776760843,0.0,94.71698113207547,3.8461538461538463,91.66666666666666,14.285714285714285,15.217391304347828,0.0,50.0
0.0,29.595015576323984,72.41379310344827,1.0309278350515463,20.0,97.01551929964187,0.0,88.67924528301887,0.0,87.5,14.285714285714285,0.0,100.0,25.0
0.0,20.87227414330218,20.689655172413794,12.371134020618557,20.0,97.73179466772781,0.0,94.33962264150944,0.0,87.5,28.57142857142857,26.08695652173913,50.0,25.0
0.0,72.89719626168224,3.4482758620689653,6.185567010309279,0.0,93.55352168722642,0.0,97.73584905660377,0.0,70.83333333333334,14.285714285714285,8.695652173913043,33.33333333333333,50.0
0.0,69.47040498442367,27.586206896551722,11.34020618556701,40.0,92.43931555909272,0.0,83.77358490566039,0.0,70.83333333333334,14.285714285714285,19.565217391304348,50.0,25.0
0.0,61.6822429906542,10.344827586206897,15.463917525773196,0.0,94.62793473935535,0.0,97.73584905660377,7.6923076923076925,91.66666666666666,28.57142857142857,26.08695652173913,100.0,100.0
33.33333333333333,38.31775700934579,13.793103448275861,36.08247422680412,0.0,95.26462395543176,12.5,95.47169811320755,15.384615384615385,94.44444444444444,0.0,2.1739130434782608,50.0,50.0
0.0,47.97507788161994,6.896551724137931,6.185567010309279,20.0,96.81655391961799,0.0,91.69811320754717,0.0,90.27777777777779,28.57142857142857,36.95652173913043,50.0,50.0
0.0,55.45171339563863,48.275862068965516,0.0,40.0,92.79745324313569,12.5,88.67924528301887,3.8461538461538463,80.55555555555556,28.57142857142857,6.521739130434782,33.33333333333333,25.0
0.0,35.51401869158878,13.793103448275861,10.309278350515463,20.0,96.7767608436132,0.0,90.56603773584906,3.8461538461538463,88.88888888888889,14.285714285714285,28.26086956521739,33.33333333333333,50.0
0.0,21.806853582554517,24.137931034482758,14.432989690721648,0.0,97.73179466772781,0.0,97.73584905660377,3.8461538461538463,86.11111111111111,57.14285714285714,2.1739130434782608,50.0,50.0
0.0,58.87850467289719,3.4482758620689653,0.0,0.0,96.17986470354158,0.0,93.9622641509434,0.0,97.22222222222221,0.0,6.521739130434782,50.0,50.0
0.0,56.074766355140184,10.344827586206897,0.0,0.0,95.42379625945085,12.5,90.56603773584906,0.0,90.27777777777779,42.857142857142854,4.3478260869565215,66.66666666666666,50.0
33.33333333333333,68.84735202492212,3.4482758620689653,18.556701030927837,40.0,94.11062475129327,0.0,95.84905660377359,7.6923076923076925,87.5,28.57142857142857,0.0,50.0,25.0
0.0,77.88161993769471,6.896551724137931,17.525773195876287,0.0,91.2057302029447,0.0,95.84905660377359,0.0,87.5,28.57142857142857,15.217391304347828,50.0,25.0
0.0,84.11214953271028,20.689655172413794,52.57731958762887,0.0,82.3716673298846,0.0,96.60377358490567,0.0,95.83333333333334,0.0,6.521739130434782,66.66666666666666,50.0
0.0,84.42367601246106,13.793103448275861,44.329896907216494,0.0,82.96856346995622,12.5,93.58490566037736,0.0,97.22222222222221,0.0,41.30434782608695,66.66666666666666,50.0
0.0,46.728971962616825,24.137931034482758,4.123711340206185,40.0,95.70234779148427,25.0,91.32075471698113,7.6923076923076925,90.27777777777779,42.857142857142854,58.69565217391305,83.33333333333334,25.0
0.0,53.58255451713395,6.896551724137931,24.742268041237114,20.0,95.1850378034222,0.0,95.09433962264151,0.0,38.88888888888889,57.14285714285714,30.434782608695656,50.0,50.0
33.33333333333333,65.10903426791276,41.37931034482759,30.927835051546392,20.0,90.13131715081576,25.0,87.16981132075472,11.538461538461538,94.44444444444444,42.857142857142854,45.65217391304348,83.33333333333334,25.0
0.0,55.140186915887845,24.137931034482758,19.587628865979383,40.0,94.42896935933148,0.0,95.84905660377359,0.0,90.27777777777779,28.57142857142857,41.30434782608695,50.0,25.0
0.0,61.059190031152646,31.03448275862069,0.0,60.0,95.70234779148427,0.0,93.58490566037736,0.0,91.66666666666666,28.57142857142857,13.043478260869565,66.66666666666666,75.0
0.0,23.67601246105919,24.137931034482758,7.216494845360824,40.0,94.98607242339833,0.0,92.0754716981132,0.0,88.88888888888889,28.57142857142857,60.86956521739131,66.66666666666666,0.0
0.0,44.85981308411215,3.4482758620689653,28.865979381443296,60.0,96.97572622363708,25.0,93.20754716981132,19.230769230769234,90.27777777777779,42.857142857142854,0.0,50.0,25.0
33.33333333333333,57.009345794392516,10.344827586206897,31.958762886597935,80.0,93.83207321925985,12.5,95.84905660377359,3.8461538461538463,94.44444444444444,42.857142857142854,23.91304347826087,66.66666666666666,25.0
0.0,44.54828660436137,31.03448275862069,3.0927835051546393,0.0,95.86152009550338,37.5,95.84905660377359,0.0,97.22222222222221,0.0,41.30434782608695,33.33333333333333,75.0
0.0,48.90965732087228,3.4482758620689653,63.91752577319587,0.0,93.07600477516912,0.0,93.58490566037736,0.0,86.11111111111111,28.57142857142857,0.0,66.66666666666666,100.0
0.0,34.26791277258567,13.793103448275861,7.216494845360824,60.0,97.97055312375646,25.0,98.49056603773585,0.0,91.66666666666666,0.0,17.391304347826086,66.66666666666666,50.0
0.0,51.71339563862928,0.0,40.20618556701031,20.0,94.90648627138879,25.0,95.09433962264151,7.6923076923076925,97.22222222222221,28.57142857142857,0.0,83.33333333333334,0.0
0.0,38.62928348909657,24.137931034482758,18.556701030927837,60.0,96.37883008356546,37.5,84.15094339622642,11.538461538461538,91.66666666666666,0.0,41.30434782608695,100.0,25.0
0.0,67.28971962616822,24.137931034482758,0.0,60.0,92.35972940708317,0.0,79.62264150943396,0.0,98.61111111111111,57.14285714285714,17.391304347826086,100.0,25.0
0.0,78.50467289719626,37.93103448275862,53.608247422680414,20.0,77.31794667727814,12.5,91.69811320754717,0.0,98.61111111111111,14.285714285714285,39.130434782608695,83.33333333333334,25.0
0.0,41.1214953271028,13.793103448275861,71.1340206185567,0.0,92.51890171110226,12.5,95.84905660377359,30.76923076923077,90.27777777777779,14.285714285714285,2.1739130434782608,50.0,25.0
0.0,36.7601246105919,17.24137931034483,32.98969072164948,0.0,92.39952248308795,0.0,93.20754716981132,46.15384615384615,87.5,14.285714285714285,54.347826086956516,100.0,0.0
0.0,75.0778816199377,0.0,0.0,0.0,91.60366096299244,12.5,94.33962264150944,3.8461538461538463,76.38888888888889,42.857142857142854,13.043478260869565,66.66666666666666,50.0
0.0,18.69158878504673,24.137931034482758,19.587628865979383,0.0,98.05013927576601,0.0,98.11320754716981,0.0,100.0,42.857142857142854,2.1739130434782608,50.0,25.0
0.0,71.02803738317756,20.689655172413794,9.278350515463918,0.0,88.77835256665341,0.0,92.83018867924528,3.8461538461538463,98.61111111111111,28.57142857142857,67.3913043478261,66.66666666666666,75.0
0.0,80.37383177570094,24.137931034482758,49.48453608247423,0.0,87.30600875447672,0.0,95.09433962264151,7.6923076923076925,93.05555555555556,0.0,0.0,66.66666666666666,25.0
0.0,8.09968847352025,13.793103448275861,4.123711340206185,40.0,98.76641464385197,0.0,86.79245283018868,30.76923076923077,68.05555555555556,57.14285714285714,0.0,33.33333333333333,0.0
0.0,16.1993769470405,13.793103448275861,27.835051546391753,0.0,96.61758853959411,0.0,96.60377358490567,3.8461538461538463,83.33333333333334,14.285714285714285,50.0,83.33333333333334,25.0
0.0,48.28660436137071,3.4482758620689653,1.0309278350515463,0.0,96.97572622363708,0.0,96.98113207547169,0.0,84.72222222222221,28.57142857142857,0.0,66.66666666666666,75.0
0.0,94.0809968847352,10.344827586206897,18.556701030927837,0.0,80.1432550736172,0.0,89.05660377358491,0.0,63.888888888888886,28.57142857142857,58.69565217391305,100.0,75.0
0.0,5.29595015576324,20.689655172413794,4.123711340206185,0.0,98.0899323517708,12.5,95.47169811320755,7.6923076923076925,90.27777777777779,0.0,28.26086956521739,66.66666666666666,75.0
0.0,70.40498442367601,13.793103448275861,47.42268041237113,0.0,92.87703939514525,0.0,89.05660377358491,0.0,90.27777777777779,28.57142857142857,4.3478260869565215,83.33333333333334,25.0
0.0,47.35202492211838,10.344827586206897,2.0618556701030926,0.0,95.90131317150816,37.5,92.0754716981132,0.0,90.27777777777779,14.285714285714285,6.521739130434782,50.0,100.0
0.0,45.17133956386293,48.275862068965516,74.22680412371135,20.0,88.73855949064863,0.0,97.73584905660377,11.538461538461538,90.27777777777779,0.0,2.1739130434782608,83.33333333333334,50.0
0.0,63.55140186915887,10.344827586206897,0.0,20.0,94.2300039793076,0.0,90.9433962264151,0.0,97.22222222222221,14.285714285714285,10.869565217391305,66.66666666666666,50.0
0.0,48.598130841121495,24.137931034482758,19.587628865979383,0.0,95.9808993235177,0.0,95.09433962264151,11.538461538461538,93.05555555555556,28.57142857142857,10.869565217391305,66.66666666666666,0.0
0.0,23.98753894080997,3.4482758620689653,21.649484536082475,20.0,96.85634699562277,0.0,98.11320754716981,3.8461538461538463,91.66666666666666,42.857142857142854,0.0,66.66666666666666,75.0
33.33333333333333,75.70093457943925,17.24137931034483,5.154639175257731,0.0,91.48428173497811,25.0,93.20754716981132,0.0,88.88888888888889,71.42857142857143,43.47826086956522,83.33333333333334,50.0
0.0,47.97507788161994,34.48275862068966,58.76288659793815,0.0,91.40469558296857,0.0,97.73584905660377,19.230769230769234,100.0,28.57142857142857,2.1739130434782608,50.0,25.0
0.0,36.44859813084112,13.793103448275861,7.216494845360824,40.0,97.93076004775169,0.0,91.69811320754717,0.0,75.0,14.285714285714285,4.3478260869565215,66.66666666666666,0.0
33.33333333333333,33.021806853582554,24.137931034482758,6.185567010309279,0.0,95.78193394349384,0.0,96.98113207547169,26.923076923076923,94.44444444444444,28.57142857142857,6.521739130434782,66.66666666666666,25.0
0.0,54.82866043613706,10.344827586206897,62.88659793814433,20.0,89.53442101074413,0.0,92.0754716981132,11.538461538461538,98.61111111111111,14.285714285714285,17.391304347826086,66.66666666666666,0.0
0.0,72.27414330218068,6.896551724137931,5.154639175257731,0.0,92.43931555909272,0.0,95.47169811320755,0.0,93.05555555555556,57.14285714285714,4.3478260869565215,33.33333333333333,0.0
33.33333333333333,71.02803738317756,24.137931034482758,19.587628865979383,0.0,92.00159172304019,12.5,98.86792452830188,7.6923076923076925,93.05555555555556,28.57142857142857,19.565217391304348,50.0,50.0
0.0,28.34890965732087,13.793103448275861,6.185567010309279,0.0,98.16951850378034,0.0,93.20754716981132,0.0,75.0,14.285714285714285,23.91304347826087,33.33333333333333,75.0
33.33333333333333,79.43925233644859,20.689655172413794,3.0927835051546393,0.0,90.01193792280144,25.0,96.98113207547169,0.0,88.88888888888889,14.285714285714285,8.695652173913043,66.66666666666666,50.0
0.0,53.89408099688473,3.4482758620689653,25.773195876288657,20.0,94.90648627138879,0.0,95.47169811320755,0.0,88.88888888888889,42.857142857142854,0.0,33.33333333333333,75.0
0.0,62.616822429906534,13.793103448275861,25.773195876288657,60.0,94.34938320732192,12.5,95.84905660377359,0.0,100.0,42.857142857142854,13.043478260869565,50.0,0.0
0.0,49.532710280373834,13.793103448275861,18.556701030927837,0.0,94.5483485873458,0.0,95.09433962264151,34.61538461538461,90.27777777777779,0.0,23.91304347826087,50.0,25.0
0.0,64.17445482866043,3.4482758620689653,56.70103092783505,20.0,92.47910863509749,25.0,91.69811320754717,0.0,93.05555555555556,0.0,10.869565217391305,66.66666666666666,50.0
0.0,25.85669781931464,17.24137931034483,4.123711340206185,40.0,98.88579387186628,0.0,88.67924528301887,0.0,77.77777777777779,28.57142857142857,4.3478260869565215,33.33333333333333,0.0
0.0,84.42367601246106,3.4482758620689653,29.896907216494846,0.0,87.6641464385197,0.0,92.45283018867924,0.0,91.66666666666666,42.857142857142854,17.391304347826086,66.66666666666666,75.0
0.0,47.0404984423676,27.586206896551722,35.051546391752574,80.0,93.87186629526462,12.5,98.49056603773585,7.6923076923076925,93.05555555555556,28.57142857142857,10.869565217391305,83.33333333333334,75.0
0.0,84.42367601246106,17.24137931034483,0.0,20.0,84.04297652208516,12.5,88.30188679245283,0.0,90.27777777777779,28.57142857142857,10.869565217391305,50.0,50.0
0.0,42.99065420560748,0.0,75.25773195876289,0.0,87.90290489454836,0.0,95.84905660377359,34.61538461538461,94.44444444444444,28.57142857142857,32.608695652173914,83.33333333333334,50.0
0.0,33.64485981308411,27.586206896551722,47.42268041237113,20.0,82.80939116593713,0.0,87.54716981132076,69.23076923076923,95.83333333333334,0.0,0.0,66.66666666666666,0.0
0.0,56.38629283489096,10.344827586206897,20.618556701030926,0.0,95.86152009550338,0.0,96.98113207547169,0.0,83.33333333333334,0.0,0.0,83.33333333333334,50.0
0.0,51.4018691588785,6.896551724137931,4.123711340206185,20.0,95.6625547154795,0.0,93.58490566037736,0.0,83.33333333333334,0.0,26.08695652173913,66.66666666666666,50.0
0.0,84.11214953271028,27.586206896551722,29.896907216494846,40.0,86.74890569040987,0.0,92.0754716981132,3.8461538461538463,98.61111111111111,0.0,8.695652173913043,66.66666666666666,0.0
0.0,60.12461059190031,31.03448275862069,29.896907216494846,20.0,89.13649025069638,0.0,97.35849056603773,3.8461538461538463,94.44444444444444,71.42857142857143,2.1739130434782608,50.0,75.0
0.0,47.97507788161994,6.896551724137931,0.0,0.0,96.41862315957025,12.5,94.71698113207547,11.538461538461538,83.33333333333334,14.285714285714285,26.08695652173913,66.66666666666666,75.0
0.0,35.82554517133956,34.48275862068966,2.0618556701030926,20.0,98.20931157978512,0.0,92.83018867924528,0.0,65.27777777777779,14.285714285714285,15.217391304347828,66.66666666666666,50.0
0.0,76.01246105919003,13.793103448275861,55.670103092783506,80.0,85.79387186629526,12.5,95.47169811320755,0.0,90.27777777777779,42.857142857142854,19.565217391304348,83.33333333333334,25.0
0.0,63.55140186915887,20.689655172413794,82.4742268041237,20.0,83.008356545961,0.0,90.9433962264151,26.923076923076923,94.44444444444444,28.57142857142857,6.521739130434782,83.33333333333334,50.0
0.0,33.64485981308411,10.344827586206897,0.0,20.0,98.36848388380422,0.0,89.43396226415095,0.0,84.72222222222221,14.285714285714285,2.1739130434782608,83.33333333333334,0.0
0.0,10.2803738317757,13.793103448275861,46.391752577319586,40.0,96.06048547552726,0.0,96.98113207547169,7.6923076923076925,70.83333333333334,57.14285714285714,4.3478260869565215,33.33333333333333,25.0
0.0,21.806853582554517,13.793103448275861,9.278350515463918,0.0,99.00517309988062,0.0,86.0377358490566,3.8461538461538463,86.11111111111111,14.285714285714285,2.1739130434782608,50.0,25.0
0.0,46.728971962616825,6.896551724137931,37.11340206185567,0.0,96.41862315957025,12.5,90.56603773584906,0.0,61.111111111111114,0.0,0.0,50.0,25.0
0.0,94.70404984423676,10.344827586206897,32.98969072164948,0.0,74.2140867489057,0.0,94.33962264150944,0.0,90.27777777777779,14.285714285714285,8.695652173913043,50.0,0.0
0.0,36.7601246105919,24.137931034482758,43.29896907216495,0.0,96.17986470354158,0.0,93.9622641509434,0.0,63.888888888888886,42.857142857142854,13.043478260869565,83.33333333333334,25.0
0.0,61.37071651090342,6.896551724137931,29.896907216494846,20.0,93.03621169916435,12.5,96.98113207547169,7.6923076923076925,69.44444444444444,14.285714285714285,8.695652173913043,50.0,25.0
0.0,86.6043613707165,24.137931034482758,3.0927835051546393,0.0,85.15718265021887,12.5,91.69811320754717,15.384615384615385,91.66666666666666,28.57142857142857,0.0,66.66666666666666,50.0
0.0,30.218068535825545,6.896551724137931,13.402061855670103,0.0,98.48786311181854,0.0,95.84905660377359,0.0,84.72222222222221,14.285714285714285,2.1739130434782608,50.0,25.0
33.33333333333333,52.024922118380054,13.793103448275861,46.391752577319586,20.0,89.21607640270592,50.0,96.22641509433963,0.0,97.22222222222221,0.0,67.3913043478261,100.0,50.0
0.0,54.82866043613706,3.4482758620689653,57.73195876288659,0.0,93.87186629526462,0.0,92.45283018867924,0.0,83.33333333333334,14.285714285714285,21.73913043478261,83.33333333333334,0.0
0.0,9.657320872274143,24.137931034482758,1.0309278350515463,20.0,99.00517309988062,0.0,88.30188679245283,0.0,77.77777777777779,14.285714285714285,0.0,66.66666666666666,25.0
0.0,49.22118380062305,58.620689655172406,50.51546391752577,40.0,92.12097095105452,12.5,93.58490566037736,0.0,87.5,28.57142857142857,6.521739130434782,66.66666666666666,25.0
0.0,66.35514018691589,3.4482758620689653,56.70103092783505,0.0,91.76283326701154,12.5,92.45283018867924,0.0,84.72222222222221,28.57142857142857,0.0,66.66666666666666,25.0
0.0,50.155763239875384,31.03448275862069,43.29896907216495,0.0,93.9116593712694,12.5,96.22641509433963,0.0,87.5,42.857142857142854,17.391304347826086,66.66666666666666,50.0
0.0,56.38629283489096,37.93103448275862,44.329896907216494,20.0,92.39952248308795,0.0,89.05660377358491,11.538461538461538,90.27777777777779,28.57142857142857,23.91304347826087,50.0,75.0
0.0,4.672897196261682,13.793103448275861,34.02061855670103,20.0,97.85117389574214,0.0,95.09433962264151,11.538461538461538,87.5,14.285714285714285,10.869565217391305,33.33333333333333,75.0
0.0,5.607476635514018,10.344827586206897,32.98969072164948,40.0,98.28889773179466,12.5,96.22641509433963,0.0,68.05555555555556,0.0,6.521739130434782,50.0,25.0
0.0,75.70093457943925,3.4482758620689653,5.154639175257731,40.0,90.5292479108635,0.0,98.86792452830188,11.538461538461538,95.83333333333334,14.285714285714285,0.0,16.666666666666664,75.0
0.0,49.22118380062305,34.48275862068966,77.31958762886599,40.0,88.42021488261042,0.0,95.47169811320755,3.8461538461538463,98.61111111111111,42.857142857142854,8.695652173913043,66.66666666666666,25.0
33.33333333333333,68.84735202492212,20.689655172413794,61.855670103092784,20.0,88.18145642658178,37.5,94.33962264150944,11.538461538461538,95.83333333333334,0.0,2.1739130434782608,66.66666666666666,50.0
0.0,61.37071651090342,13.793103448275861,38.144329896907216,20.0,89.93235177079188,25.0,95.09433962264151,50.0,98.61111111111111,14.285714285714285,47.82608695652174,83.33333333333334,75.0
0.0,27.41433021806853,10.344827586206897,60.824742268041234,40.0,93.67290091524076,12.5,96.98113207547169,15.384615384615385,91.66666666666666,71.42857142857143,45.65217391304348,83.33333333333334,25.0
0.0,91.27725856697819,17.24137931034483,29.896907216494846,60.0,81.17787504974135,12.5,97.35849056603773,3.8461538461538463,86.11111111111111,0.0,8.695652173913043,83.33333333333334,100.0
0.0,56.074766355140184,6.896551724137931,9.278350515463918,0.0,95.22483087942697,0.0,98.11320754716981,0.0,61.111111111111114,28.57142857142857,6.521739130434782,66.66666666666666,75.0
0.0,26.168224299065418,24.137931034482758,11.34020618556701,20.0,97.17469160366096,12.5,97.35849056603773,7.6923076923076925,91.66666666666666,14.285714285714285,17.391304347826086,83.33333333333334,50.0
33.33333333333333,37.69470404984423,6.896551724137931,55.670103092783506,40.0,92.99641862315957,0.0,92.83018867924528,42.30769230769231,93.05555555555556,14.285714285714285,41.30434782608695,50.0,75.0
0.0,66.66666666666666,13.793103448275861,20.618556701030926,20.0,92.75766016713092,0.0,97.35849056603773,0.0,95.83333333333334,0.0,0.0,83.33333333333334,50.0
0.0,13.707165109034266,41.37931034482759,2.0618556701030926,20.0,79.50656585754079,0.0,91.69811320754717,0.0,90.27777777777779,14.285714285714285,95.65217391304348,33.33333333333333,50.0
0.0,58.25545171339564,10.344827586206897,20.618556701030926,40.0,95.10545165141265,12.5,93.58490566037736,3.8461538461538463,94.44444444444444,28.57142857142857,39.130434782608695,33.33333333333333,25.0
0.0,27.725856697819314,10.344827586206897,65.97938144329896,40.0,95.02586549940311,0.0,88.30188679245283,0.0,33.33333333333333,14.285714285714285,6.521739130434782,66.66666666666666,25.0
0.0,45.17133956386293,10.344827586206897,9.278350515463918,60.0,95.90131317150816,0.0,96.98113207547169,11.538461538461538,70.83333333333334,14.285714285714285,15.217391304347828,66.66666666666666,25.0
0.0,69.47040498442367,3.4482758620689653,38.144329896907216,20.0,91.12614405093514,12.5,98.49056603773585,15.384615384615385,91.66666666666666,0.0,26.08695652173913,66.66666666666666,50.0
0.0,86.91588785046729,10.344827586206897,21.649484536082475,40.0,86.19180262634302,0.0,95.09433962264151,0.0,91.66666666666666,28.57142857142857,32.608695652173914,50.0,0.0
0.0,44.23676012461059,6.896551724137931,5.154639175257731,20.0,90.48945483485873,0.0,97.35849056603773,46.15384615384615,77.77777777777779,14.285714285714285,45.65217391304348,33.33333333333333,0.0
0.0,50.77881619937694,20.689655172413794,67.0103092783505,40.0,85.95304417031436,0.0,99.24528301886792,7.6923076923076925,91.66666666666666,28.57142857142857,0.0,66.66666666666666,50.0
0.0,78.81619937694704,3.4482758620689653,60.824742268041234,40.0,86.15200955033824,0.0,98.49056603773585,19.230769230769234,97.22222222222221,28.57142857142857,23.91304347826087,50.0,50.0
0.0,68.53582554517133,3.4482758620689653,51.546391752577314,0.0,92.12097095105452,12.5,93.9622641509434,3.8461538461538463,88.88888888888889,0.0,4.3478260869565215,66.66666666666666,50.0
0.0,79.43925233644859,0.0,28.865979381443296,0.0,84.600079586152,0.0,95.09433962264151,30.76923076923077,94.44444444444444,28.57142857142857,52.17391304347826,50.0,50.0
0.0,53.58255451713395,13.793103448275861,49.48453608247423,0.0,89.53442101074413,0.0,98.49056603773585,61.53846153846154,75.0,0.0,0.0,50.0,50.0
0.0,29.595015576323984,24.137931034482758,74.22680412371135,40.0,91.04655789892558,0.0,84.15094339622642,3.8461538461538463,87.5,0.0,6.521739130434782,66.66666666666666,25.0
0.0,42.99065420560748,27.586206896551722,3.0927835051546393,40.0,95.94110624751293,0.0,95.47169811320755,7.6923076923076925,87.5,42.857142857142854,52.17391304347826,66.66666666666666,25.0
0.0,48.28660436137071,13.793103448275861,16.49484536082474,0.0,93.39434938320733,0.0,96.22641509433963,23.076923076923077,88.88888888888889,0.0,10.869565217391305,50.0,0.0
0.0,90.65420560747664,17.24137931034483,21.649484536082475,0.0,79.90449661758853,0.0,97.73584905660377,0.0,98.61111111111111,0.0,4.3478260869565215,33.33333333333333,75.0
0.0,35.51401869158878,10.344827586206897,31.958762886597935,40.0,97.37365698368484,12.5,94.71698113207547,3.8461538461538463,95.83333333333334,14.285714285714285,0.0,83.33333333333334,50.0
0.0,81.30841121495327,6.896551724137931,41.23711340206185,20.0,89.29566255471548,25.0,94.71698113207547,11.538461538461538,86.11111111111111,14.285714285714285,13.043478260869565,83.33333333333334,25.0
0.0,59.813084112149525,10.344827586206897,50.51546391752577,0.0,92.28014325507363,37.5,95.84905660377359,0.0,93.05555555555556,42.857142857142854,17.391304347826086,33.33333333333333,25.0
0.0,30.529595015576323,3.4482758620689653,2.0618556701030926,20.0,98.36848388380422,0.0,92.0754716981132,0.0,88.88888888888889,28.57142857142857,8.695652173913043,33.33333333333333,50.0
0.0,39.25233644859813,10.344827586206897,40.20618556701031,40.0,94.2300039793076,0.0,96.98113207547169,19.230769230769234,76.38888888888889,28.57142857142857,2.1739130434782608,83.33333333333334,0.0
0.0,77.57009345794393,13.793103448275861,53.608247422680414,0.0,87.10704337445284,25.0,95.09433962264151,0.0,87.5,14.285714285714285,6.521739130434782,50.0,25.0
0.0,32.087227414330215,6.896551724137931,2.0618556701030926,20.0,96.89614007162753,12.5,84.52830188679246,0.0,97.22222222222221,28.57142857142857,45.65217391304348,66.66666666666666,50.0
0.0,56.69781931464174,10.344827586206897,35.051546391752574,20.0,91.92200557103064,12.5,94.71698113207547,19.230769230769234,84.72222222222221,57.14285714285714,63.04347826086957,66.66666666666666,0.0
0.0,60.747663551401864,17.24137931034483,11.34020618556701,40.0,95.82172701949861,0.0,92.0754716981132,0.0,90.27777777777779,0.0,2.1739130434782608,66.66666666666666,25.0
0.0,74.14330218068535,20.689655172413794,2.0618556701030926,40.0,92.71786709112615,0.0,92.45283018867924,3.8461538461538463,81.94444444444444,0.0,0.0,66.66666666666666,25.0
0.0,29.906542056074763,6.896551724137931,24.742268041237114,40.0,97.97055312375646,0.0,94.33962264150944,0.0,91.66666666666666,0.0,19.565217391304348,100.0,75.0
0.0,33.021806853582554,6.896551724137931,40.20618556701031,0.0,96.02069239952247,0.0,97.35849056603773,7.6923076923076925,91.66666666666666,14.285714285714285,6.521739130434782,50.0,25.0
0.0,19.003115264797508,3.4482758620689653,52.57731958762887,100.0,92.43931555909272,0.0,99.24528301886792,11.538461538461538,97.22222222222221,14.285714285714285,36.95652173913043,83.33333333333334,50.0
0.0,61.99376947040498,13.793103448275861,0.0,0.0,92.24035017906884,0.0,93.20754716981132,0.0,86.11111111111111,14.285714285714285,71.73913043478261,83.33333333333334,75.0
0.0,19.314641744548286,3.4482758620689653,6.185567010309279,40.0,99.04496617588539,0.0,94.33962264150944,3.8461538461538463,66.66666666666666,0.0,0.0,66.66666666666666,25.0
0.0,33.021806853582554,20.689655172413794,0.0,0.0,98.0899323517708,12.5,92.83018867924528,0.0,70.83333333333334,14.285714285714285,4.3478260869565215,83.33333333333334,50.0
0.0,40.18691588785047,31.03448275862069,36.08247422680412,20.0,95.42379625945085,12.5,94.71698113207547,0.0,81.94444444444444,28.57142857142857,6.521739130434782,33.33333333333333,50.0
0.0,58.56697819314641,13.793103448275861,11.34020618556701,0.0,91.2057302029447,0.0,96.60377358490567,3.8461538461538463,66.66666666666666,0.0,58.69565217391305,66.66666666666666,25.0
0.0,38.006230529595015,41.37931034482759,30.927835051546392,0.0,96.17986470354158,0.0,91.32075471698113,19.230769230769234,98.61111111111111,14.285714285714285,21.73913043478261,50.0,75.0
0.0,15.264797507788161,3.4482758620689653,21.649484536082475,40.0,99.04496617588539,25.0,94.71698113207547,0.0,93.05555555555556,0.0,0.0,83.33333333333334,75.0
0.0,37.38317757009346,13.793103448275861,74.22680412371135,20.0,90.5292479108635,12.5,97.35849056603773,15.384615384615385,91.66666666666666,14.285714285714285,17.391304347826086,50.0,75.0
0.0,51.4018691588785,6.896551724137931,14.432989690721648,0.0,94.42896935933148,0.0,96.98113207547169,23.076923076923077,91.66666666666666,28.57142857142857,4.3478260869565215,33.33333333333333,25.0
0.0,50.155763239875384,24.137931034482758,3.0927835051546393,20.0,93.63310783923598,25.0,96.22641509433963,26.923076923076923,84.72222222222221,42.857142857142854,6.521739130434782,50.0,25.0
0.0,49.532710280373834,17.24137931034483,71.1340206185567,0.0,93.7524870672503,0.0,90.56603773584906,0.0,87.5,0.0,4.3478260869565215,50.0,25.0
0.0,77.25856697819314,3.4482758620689653,47.42268041237113,20.0,85.71428571428571,0.0,93.9622641509434,30.76923076923077,94.44444444444444,42.857142857142854,0.0,33.33333333333333,50.0
0.0,38.31775700934579,13.793103448275861,90.72164948453609,40.0,84.91842419419021,0.0,91.69811320754717,38.46153846153847,88.88888888888889,42.857142857142854,0.0,83.33333333333334,75.0
0.0,57.63239875389408,20.689655172413794,10.309278350515463,20.0,95.26462395543176,12.5,89.43396226415095,0.0,98.61111111111111,0.0,15.217391304347828,50.0,100.0
0.0,25.233644859813083,0.0,1.0309278350515463,40.0,98.40827695980899,12.5,91.32075471698113,0.0,80.55555555555556,0.0,2.1739130434782608,100.0,50.0
0.0,69.78193146417445,6.896551724137931,0.0,0.0,94.42896935933148,0.0,96.98113207547169,0.0,83.33333333333334,28.57142857142857,2.1739130434782608,83.33333333333334,100.0
0.0,87.53894080996885,10.344827586206897,0.0,80.0,86.31118185435734,12.5,96.98113207547169,7.6923076923076925,88.88888888888889,14.285714285714285,17.391304347826086,66.66666666666666,25.0
0.0,51.71339563862928,10.344827586206897,40.20618556701031,0.0,94.50855551134103,25.0,92.45283018867924,19.230769230769234,94.44444444444444,14.285714285714285,13.043478260869565,50.0,0.0
0.0,64.797507788162,17.24137931034483,26.804123711340207,20.0,91.48428173497811,25.0,95.84905660377359,0.0,98.61111111111111,57.14285714285714,39.130434782608695,50.0,50.0
0.0,39.56386292834891,51.724137931034484,1.0309278350515463,40.0,95.30441703143653,0.0,93.20754716981132,0.0,97.22222222222221,28.57142857142857,26.08695652173913,50.0,25.0
0.0,26.479750778816197,3.4482758620689653,13.402061855670103,20.0,98.48786311181854,0.0,91.69811320754717,0.0,81.94444444444444,14.285714285714285,4.3478260869565215,33.33333333333333,25.0
0.0,39.875389408099686,0.0,29.896907216494846,20.0,97.25427775567051,0.0,90.9433962264151,0.0,55.55555555555556,14.285714285714285,15.217391304347828,66.66666666666666,50.0
0.0,43.30218068535825,13.793103448275861,62.88659793814433,0.0,92.99641862315957,12.5,95.09433962264151,34.61538461538461,93.05555555555556,0.0,4.3478260869565215,100.0,0.0
0.0,13.707165109034266,6.896551724137931,0.0,40.0,98.16951850378034,0.0,97.35849056603773,3.8461538461538463,95.83333333333334,28.57142857142857,28.26086956521739,66.66666666666666,75.0
0.0,79.75077881619937,17.24137931034483,25.773195876288657,0.0,89.37524870672503,12.5,95.47169811320755,3.8461538461538463,97.22222222222221,14.285714285714285,4.3478260869565215,50.0,50.0
0.0,59.19003115264797,6.896551724137931,38.144329896907216,20.0,88.73855949064863,25.0,95.09433962264151,0.0,97.22222222222221,0.0,69.56521739130434,66.66666666666666,50.0
0.0,62.30529595015576,0.0,10.309278350515463,40.0,94.62793473935535,25.0,94.71698113207547,3.8461538461538463,100.0,28.57142857142857,0.0,50.0,50.0
0.0,59.50155763239875,13.793103448275861,62.88659793814433,20.0,90.68842021488261,0.0,98.11320754716981,3.8461538461538463,97.22222222222221,0.0,2.1739130434782608,33.33333333333333,50.0
0.0,41.1214953271028,24.137931034482758,47.42268041237113,0.0,95.34421010744131,12.5,93.9622641509434,0.0,81.94444444444444,0.0,0.0,50.0,25.0
0.0,62.928348909657316,10.344827586206897,50.51546391752577,0.0,93.87186629526462,50.0,92.45283018867924,0.0,98.61111111111111,14.285714285714285,4.3478260869565215,66.66666666666666,50.0
0.0,28.66043613707165,3.4482758620689653,4.123711340206185,40.0,98.40827695980899,0.0,90.9433962264151,0.0,79.16666666666666,28.57142857142857,6.521739130434782,66.66666666666666,50.0
0.0,66.97819314641744,3.4482758620689653,38.144329896907216,0.0,91.92200557103064,25.0,98.49056603773585,0.0,90.27777777777779,28.57142857142857,0.0,66.66666666666666,50.0
0.0,41.43302180685358,27.586206896551722,21.649484536082475,20.0,92.47910863509749,25.0,98.86792452830188,11.538461538461538,93.05555555555556,28.57142857142857,0.0,50.0,75.0
0.0,43.30218068535825,17.24137931034483,5.154639175257731,40.0,97.05531237564664,12.5,90.18867924528303,3.8461538461538463,88.88888888888889,28.57142857142857,28.26086956521739,16.666666666666664,25.0
0.0,41.74454828660436,6.896551724137931,44.329896907216494,0.0,92.87703939514525,25.0,95.84905660377359,38.46153846153847,80.55555555555556,0.0,19.565217391304348,66.66666666666666,50.0
0.0,17.75700934579439,3.4482758620689653,1.0309278350515463,20.0,99.00517309988062,12.5,93.20754716981132,0.0,76.38888888888889,14.285714285714285,30.434782608695656,16.666666666666664,0.0
0.0,37.69470404984423,17.24137931034483,29.896907216494846,0.0,97.49303621169916,12.5,91.32075471698113,0.0,58.333333333333336,0.0,6.521739130434782,66.66666666666666,25.0
0.0,66.04361370716511,6.896551724137931,30.927835051546392,80.0,93.19538400318345,0.0,98.11320754716981,0.0,79.16666666666666,14.285714285714285,2.1739130434782608,83.33333333333334,25.0
0.0,48.28660436137071,24.137931034482758,34.02061855670103,0.0,93.15559092717866,12.5,93.9622641509434,7.6923076923076925,90.27777777777779,14.285714285714285,60.86956521739131,66.66666666666666,50.0
0.0,8.09968847352025,24.137931034482758,7.216494845360824,0.0,98.84600079586153,0.0,86.79245283018868,0.0,93.05555555555556,28.57142857142857,39.130434782608695,50.0,50.0
0.0,79.12772585669782,10.344827586206897,24.742268041237114,40.0,90.5292479108635,0.0,97.73584905660377,19.230769230769234,91.66666666666666,14.285714285714285,0.0,66.66666666666666,50.0
0.0,14.330218068535824,0.0,12.371134020618557,0.0,99.60206923995226,0.0,91.32075471698113,0.0,81.94444444444444,14.285714285714285,8.695652173913043,50.0,0.0
0.0,80.37383177570094,6.896551724137931,31.958762886597935,20.0,84.958217270195,0.0,95.47169811320755,34.61538461538461,88.88888888888889,0.0,30.434782608695656,16.666666666666664,50.0
0.0,31.15264797507788,3.4482758620689653,8.24742268041237,20.0,97.01551929964187,12.5,93.58490566037736,26.923076923076923,88.88888888888889,14.285714285714285,6.521739130434782,83.33333333333334,75.0
0.0,72.89719626168224,0.0,2.0618556701030926,40.0,87.90290489454836,12.5,92.0754716981132,0.0,95.83333333333334,42.857142857142854,6.521739130434782,50.0,50.0
0.0,24.610591900311526,6.896551724137931,2.0618556701030926,20.0,99.04496617588539,0.0,89.81132075471699,0.0,83.33333333333334,0.0,2.1739130434782608,33.33333333333333,25.0
0.0,57.943925233644855,3.4482758620689653,60.824742268041234,0.0,91.44448865897334,0.0,92.0754716981132,0.0,88.88888888888889,71.42857142857143,2.1739130434782608,83.33333333333334,100.0
0.0,53.89408099688473,6.896551724137931,38.144329896907216,60.0,93.63310783923598,12.5,96.98113207547169,19.230769230769234,95.83333333333334,14.285714285714285,15.217391304347828,50.0,25.0
0.0,80.37383177570094,31.03448275862069,10.309278350515463,40.0,85.11738957421409,0.0,97.35849056603773,50.0,97.22222222222221,14.285714285714285,21.73913043478261,33.33333333333333,25.0
0.0,54.20560747663551,3.4482758620689653,2.0618556701030926,0.0,96.57779546358934,0.0,86.79245283018868,0.0,37.5,14.285714285714285,0.0,50.0,50.0
0.0,89.09657320872275,17.24137931034483,0.0,0.0,84.83883804218067,0.0,87.54716981132076,3.8461538461538463,81.94444444444444,0.0,0.0,50.0,50.0
0.0,38.006230529595015,6.896551724137931,54.63917525773196,0.0,96.37883008356546,0.0,91.69811320754717,11.538461538461538,86.11111111111111,0.0,26.08695652173913,100.0,50.0
0.0,54.82866043613706,31.03448275862069,6.185567010309279,40.0,94.58814166335058,0.0,98.49056603773585,0.0,95.83333333333334,14.285714285714285,28.26086956521739,50.0,50.0
33.33333333333333,83.17757009345794,31.03448275862069,28.865979381443296,80.0,77.83525666534024,0.0,93.20754716981132,0.0,100.0,28.57142857142857,63.04347826086957,83.33333333333334,75.0
0.0,65.42056074766354,10.344827586206897,43.29896907216495,0.0,79.54635893354556,0.0,97.73584905660377,3.8461538461538463,93.05555555555556,0.0,73.91304347826086,83.33333333333334,75.0
0.0,5.607476635514018,13.793103448275861,0.0,20.0,97.05531237564664,0.0,98.49056603773585,11.538461538461538,90.27777777777779,28.57142857142857,19.565217391304348,100.0,0.0
0.0,49.84423676012461,55.172413793103445,63.91752577319587,20.0,90.8475925189017,0.0,98.11320754716981,26.923076923076923,98.61111111111111,28.57142857142857,13.043478260869565,33.33333333333333,0.0
0.0,62.616822429906534,6.896551724137931,11.34020618556701,40.0,91.00676482292081,12.5,97.73584905660377,0.0,84.72222222222221,0.0,43.47826086956522,83.33333333333334,75.0
0.0,78.19314641744548,0.0,20.618556701030926,0.0,89.57421408674891,0.0,97.73584905660377,0.0,94.44444444444444,28.57142857142857,8.695652173913043,66.66666666666666,75.0
0.0,43.925233644859816,10.344827586206897,25.773195876288657,20.0,95.02586549940311,0.0,98.11320754716981,0.0,97.22222222222221,0.0,13.043478260869565,33.33333333333333,75.0
0.0,33.64485981308411,17.24137931034483,43.29896907216495,20.0,94.82690011937923,12.5,93.9622641509434,15.384615384615385,97.22222222222221,28.57142857142857,47.82608695652174,50.0,75.0
33.33333333333333,19.937694704049843,55.172413793103445,5.154639175257731,40.0,94.82690011937923,0.0,88.67924528301887,3.8461538461538463,90.27777777777779,14.285714285714285,10.869565217391305,50.0,75.0
0.0,18.06853582554517,3.4482758620689653,0.0,40.0,98.68682849184242,0.0,95.84905660377359,0.0,88.88888888888889,71.42857142857143,8.695652173913043,66.66666666666666,75.0
33.33333333333333,75.70093457943925,17.24137931034483,59.79381443298969,40.0,82.8491842419419,12.5,96.60377358490567,15.384615384615385,98.61111111111111,42.857142857142854,26.08695652173913,66.66666666666666,50.0
0.0,72.58566978193146,13.793103448275861,0.0,40.0,91.28531635495423,0.0,93.20754716981132,3.8461538461538463,91.66666666666666,28.57142857142857,28.26086956521739,50.0,50.0
0.0,68.84735202492212,17.24137931034483,21.649484536082475,40.0,93.87186629526462,0.0,95.09433962264151,3.8461538461538463,94.44444444444444,28.57142857142857,0.0,83.33333333333334,50.0
0.0,70.40498442367601,13.793103448275861,47.42268041237113,0.0,87.14683645045763,12.5,95.09433962264151,7.6923076923076925,93.05555555555556,42.857142857142854,34.78260869565217,66.66666666666666,75.0
0.0,61.99376947040498,13.793103448275861,2.0618556701030926,60.0,96.49820931157979,12.5,87.9245283018868,0.0,94.44444444444444,14.285714285714285,0.0,66.66666666666666,50.0
0.0,43.613707165109034,3.4482758620689653,17.525773195876287,40.0,96.02069239952247,12.5,96.22641509433963,3.8461538461538463,93.05555555555556,14.285714285714285,36.95652173913043,33.33333333333333,75.0
0.0,41.43302180685358,37.93103448275862,4.123711340206185,0.0,93.87186629526462,0.0,93.9622641509434,0.0,90.27777777777779,0.0,63.04347826086957,33.33333333333333,25.0
0.0,70.7165109034268,10.344827586206897,28.865979381443296,40.0,90.40986868284918,25.0,96.60377358490567,30.76923076923077,90.27777777777779,14.285714285714285,36.95652173913043,33.33333333333333,75.0
0.0,48.28660436137071,20.689655172413794,3.0927835051546393,0.0,96.02069239952247,0.0,91.69811320754717,19.230769230769234,91.66666666666666,14.285714285714285,8.695652173913043,33.33333333333333,50.0
0.0,56.69781931464174,17.24137931034483,42.2680412371134,20.0,91.5240748109829,25.0,93.58490566037736,3.8461538461538463,93.05555555555556,14.285714285714285,0.0,83.33333333333334,100.0
0.0,65.10903426791276,20.689655172413794,2.0618556701030926,60.0,93.7524870672503,0.0,89.81132075471699,34.61538461538461,97.22222222222221,28.57142857142857,13.043478260869565,83.33333333333334,0.0
0.0,68.22429906542055,41.37931034482759,0.0,40.0,92.71786709112615,0.0,89.43396226415095,0.0,86.11111111111111,14.285714285714285,26.08695652173913,83.33333333333334,75.0
0.0,44.54828660436137,10.344827586206897,51.546391752577314,20.0,92.79745324313569,0.0,95.47169811320755,3.8461538461538463,37.5,14.285714285714285,17.391304347826086,83.33333333333334,0.0
0.0,70.7165109034268,10.344827586206897,19.587628865979383,20.0,93.55352168722642,12.5,96.60377358490567,0.0,48.61111111111111,14.285714285714285,8.695652173913043,83.33333333333334,50.0
0.0,52.95950155763239,24.137931034482758,4.123711340206185,40.0,96.73696776760843,12.5,92.0754716981132,0.0,94.44444444444444,14.285714285714285,0.0,33.33333333333333,25.0
0.0,63.55140186915887,0.0,22.68041237113402,20.0,93.87186629526462,12.5,94.33962264150944,0.0,65.27777777777779,14.285714285714285,10.869565217391305,50.0,50.0
0.0,4.361370716510903,17.24137931034483,6.185567010309279,20.0,99.48269001193792,12.5,79.62264150943396,0.0,29.166666666666668,0.0,0.0,100.0,0.0
0.0,29.283489096573206,10.344827586206897,20.618556701030926,0.0,98.20931157978512,0.0,95.09433962264151,0.0,95.83333333333334,0.0,6.521739130434782,100.0,50.0
0.0,41.74454828660436,13.793103448275861,30.927835051546392,0.0,97.05531237564664,0.0,90.56603773584906,3.8461538461538463,61.111111111111114,14.285714285714285,0.0,66.66666666666666,75.0
0.0,70.7165109034268,24.137931034482758,52.57731958762887,0.0,89.81297254277756,25.0,96.22641509433963,26.923076923076923,94.44444444444444,14.285714285714285,10.869565217391305,66.66666666666666,50.0
0.0,89.40809968847351,10.344827586206897,9.278350515463918,20.0,83.76442499005174,12.5,96.98113207547169,3.8461538461538463,83.33333333333334,28.57142857142857,23.91304347826087,83.33333333333334,25.0
0.0,47.66355140186916,24.137931034482758,3.0927835051546393,0.0,96.33903700756068,0.0,95.84905660377359,0.0,94.44444444444444,42.857142857142854,8.695652173913043,50.0,50.0
0.0,35.82554517133956,6.896551724137931,3.0927835051546393,80.0,96.89614007162753,0.0,94.33962264150944,3.8461538461538463,94.44444444444444,14.285714285714285,34.78260869565217,66.66666666666666,0.0
66.66666666666666,68.53582554517133,44.827586206896555,37.11340206185567,0.0,87.14683645045763,0.0,98.86792452830188,7.6923076923076925,91.66666666666666,14.285714285714285,8.695652173913043,0.0,75.0
0.0,19.937694704049843,24.137931034482758,17.525773195876287,20.0,98.40827695980899,0.0,96.98113207547169,0.0,88.88888888888889,14.285714285714285,4.3478260869565215,100.0,50.0
0.0,81.30841121495327,17.24137931034483,46.391752577319586,20.0,87.5049741345006,0.0,95.47169811320755,0.0,91.66666666666666,28.57142857142857,10.869565217391305,66.66666666666666,50.0
0.0,66.66666666666666,10.344827586206897,9.278350515463918,0.0,93.4341424592121,12.5,90.9433962264151,11.538461538461538,95.83333333333334,14.285714285714285,6.521739130434782,33.33333333333333,0.0
0.0,76.63551401869158,13.793103448275861,20.618556701030926,20.0,88.22124950258655,12.5,94.71698113207547,0.0,95.83333333333334,42.857142857142854,8.695652173913043,66.66666666666666,50.0
0.0,64.797507788162,0.0,51.546391752577314,60.0,90.0517309988062,12.5,96.22641509433963,0.0,93.05555555555556,14.285714285714285,0.0,50.0,25.0
0.0,21.49532710280374,6.896551724137931,3.0927835051546393,40.0,99.08475925189018,0.0,89.43396226415095,0.0,59.72222222222222,0.0,13.043478260869565,33.33333333333333,25.0
0.0,62.30529595015576,13.793103448275861,1.0309278350515463,20.0,94.62793473935535,0.0,92.45283018867924,0.0,84.72222222222221,0.0,13.043478260869565,83.33333333333334,75.0
33.33333333333333,72.27414330218068,10.344827586206897,19.587628865979383,40.0,90.37007560684441,25.0,97.73584905660377,26.923076923076923,90.27777777777779,0.0,2.1739130434782608,66.66666666666666,50.0
0.0,59.813084112149525,3.4482758620689653,31.958762886597935,20.0,92.47910863509749,37.5,96.60377358490567,0.0,94.44444444444444,28.57142857142857,13.043478260869565,50.0,75.0
0.0,38.940809968847354,6.896551724137931,3.0927835051546393,0.0,95.34421010744131,0.0,93.20754716981132,0.0,62.5,42.857142857142854,50.0,33.33333333333333,25.0
0.0,77.88161993769471,6.896551724137931,5.154639175257731,20.0,92.79745324313569,12.5,92.83018867924528,11.538461538461538,90.27777777777779,0.0,4.3478260869565215,83.33333333333334,25.0
0.0,27.41433021806853,31.03448275862069,25.773195876288657,60.0,96.458416235575,0.0,95.09433962264151,0.0,97.22222222222221,28.57142857142857,41.30434782608695,50.0,25.0
0.0,55.45171339563863,20.689655172413794,58.76288659793815,20.0,92.91683247115003,0.0,94.71698113207547,3.8461538461538463,86.11111111111111,14.285714285714285,0.0,66.66666666666666,75.0
0.0,22.118380062305295,10.344827586206897,48.45360824742268,20.0,97.85117389574214,0.0,93.58490566037736,3.8461538461538463,68.05555555555556,14.285714285714285,0.0,50.0,50.0
0.0,25.54517133956386,10.344827586206897,27.835051546391753,0.0,95.42379625945085,62.5,95.84905660377359,0.0,73.61111111111111,28.57142857142857,10.869565217391305,66.66666666666666,25.0
0.0,76.32398753894081,10.344827586206897,61.855670103092784,20.0,87.38559490648628,0.0,95.84905660377359,0.0,98.61111111111111,14.285714285714285,0.0,100.0,25.0
0.0,62.928348909657316,10.344827586206897,2.0618556701030926,0.0,92.91683247115003,0.0,96.60377358490567,11.538461538461538,81.94444444444444,42.857142857142854,4.3478260869565215,50.0,50.0
0.0,84.11214953271028,3.4482758620689653,5.154639175257731,0.0,88.3008356545961,0.0,96.22641509433963,3.8461538461538463,88.88888888888889,0.0,52.17391304347826,66.66666666666666,75.0
0.0,50.77881619937694,17.24137931034483,2.0618556701030926,0.0,97.0951054516514,0.0,95.09433962264151,7.6923076923076925,93.05555555555556,0.0,10.869565217391305,66.66666666666666,25.0
0.0,84.11214953271028,10.344827586206897,1.0309278350515463,20.0,87.74373259052925,0.0,86.0377358490566,0.0,98.61111111111111,28.57142857142857,2.1739130434782608,50.0,0.0
0.0,33.95638629283489,13.793103448275861,7.216494845360824,20.0,96.85634699562277,0.0,98.11320754716981,0.0,87.5,0.0,39.130434782608695,50.0,50.0
0.0,40.809968847352025,0.0,7.216494845360824,60.0,97.41345005968961,12.5,94.71698113207547,3.8461538461538463,87.5,14.285714285714285,0.0,50.0,25.0
0.0,28.971962616822427,31.03448275862069,55.670103092783506,20.0,93.63310783923598,0.0,96.22641509433963,3.8461538461538463,98.61111111111111,14.285714285714285,36.95652173913043,66.66666666666666,25.0
0.0,85.04672897196261,24.137931034482758,30.927835051546392,20.0,81.05849582172702,37.5,90.18867924528303,0.0,94.44444444444444,14.285714285714285,58.69565217391305,50.0,75.0
0.0,44.54828660436137,24.137931034482758,32.98969072164948,20.0,94.78710704337445,12.5,95.84905660377359,7.6923076923076925,94.44444444444444,14.285714285714285,23.91304347826087,33.33333333333333,75.0
0.0,67.91277258566979,6.896551724137931,29.896907216494846,60.0,92.55869478710704,0.0,92.83018867924528,7.6923076923076925,93.05555555555556,14.285714285714285,2.1739130434782608,83.33333333333334,75.0
0.0,43.925233644859816,13.793103448275861,40.20618556701031,40.0,93.87186629526462,12.5,98.11320754716981,23.076923076923077,80.55555555555556,0.0,50.0,66.66666666666666,75.0
0.0,16.822429906542055,27.586206896551722,44.329896907216494,20.0,94.26979705531238,0.0,98.11320754716981,23.076923076923077,95.83333333333334,0.0,13.043478260869565,83.33333333333334,25.0
0.0,49.84423676012461,0.0,2.0618556701030926,20.0,96.33903700756068,0.0,93.20754716981132,0.0,94.44444444444444,14.285714285714285,4.3478260869565215,33.33333333333333,50.0
0.0,49.84423676012461,6.896551724137931,7.216494845360824,0.0,96.1400716275368,25.0,87.54716981132076,7.6923076923076925,95.83333333333334,14.285714285714285,19.565217391304348,50.0,50.0
0.0,71.33956386292834,17.24137931034483,17.525773195876287,60.0,90.96697174691603,37.5,92.83018867924528,3.8461538461538463,54.166666666666664,57.14285714285714,26.08695652173913,66.66666666666666,25.0
0.0,73.5202492211838,24.137931034482758,9.278350515463918,0.0,92.08117787504975,0.0,95.09433962264151,0.0,84.72222222222221,0.0,0.0,33.33333333333333,75.0
0.0,59.19003115264797,10.344827586206897,15.463917525773196,0.0,95.14524472741743,12.5,89.05660377358491,0.0,79.16666666666666,0.0,6.521739130434782,83.33333333333334,0.0
0.0,43.30218068535825,17.24137931034483,10.309278350515463,0.0,98.16951850378034,0.0,91.69811320754717,0.0,87.5,14.285714285714285,8.695652173913043,66.66666666666666,25.0
33.33333333333333,50.155763239875384,13.793103448275861,8.24742268041237,60.0,96.1400716275368,12.5,93.20754716981132,3.8461538461538463,68.05555555555556,28.57142857142857,10.869565217391305,33.33333333333333,50.0
0.0,29.906542056074763,34.48275862068966,62.88659793814433,0.0,93.19538400318345,0.0,98.11320754716981,7.6923076923076925,97.22222222222221,57.14285714285714,10.869565217391305,66.66666666666666,0.0
0.0,66.35514018691589,0.0,4.123711340206185,0.0,93.95145244727418,0.0,93.20754716981132,0.0,86.11111111111111,0.0,0.0,83.33333333333334,100.0
0.0,45.794392523364486,10.344827586206897,41.23711340206185,0.0,95.86152009550338,0.0,91.69811320754717,3.8461538461538463,52.77777777777778,57.14285714285714,13.043478260869565,66.66666666666666,25.0
0.0,16.1993769470405,10.344827586206897,16.49484536082474,0.0,93.59331476323119,12.5,94.71698113207547,46.15384615384615,90.27777777777779,28.57142857142857,21.73913043478261,66.66666666666666,25.0
0.0,6.230529595015576,13.793103448275861,31.958762886597935,0.0,98.92558694787107,0.0,90.18867924528303,0.0,68.05555555555556,14.285714285714285,6.521739130434782,83.33333333333334,25.0
0.0,79.43925233644859,24.137931034482758,14.432989690721648,20.0,86.62952646239555,37.5,91.69811320754717,3.8461538461538463,97.22222222222221,0.0,56.52173913043478,50.0,50.0
0.0,49.532710280373834,10.344827586206897,53.608247422680414,20.0,94.58814166335058,25.0,93.9622641509434,7.6923076923076925,98.61111111111111,0.0,19.565217391304348,83.33333333333334,25.0
0.0,38.940809968847354,10.344827586206897,13.402061855670103,40.0,98.01034619976124,0.0,96.22641509433963,0.0,97.22222222222221,0.0,6.521739130434782,66.66666666666666,50.0
0.0,75.70093457943925,20.689655172413794,0.0,40.0,92.35972940708317,25.0,94.71698113207547,3.8461538461538463,94.44444444444444,0.0,32.608695652173914,50.0,25.0
0.0,27.41433021806853,6.896551724137931,9.278350515463918,40.0,98.01034619976124,0.0,90.56603773584906,0.0,90.27777777777779,0.0,26.08695652173913,66.66666666666666,100.0
0.0,28.66043613707165,10.344827586206897,17.525773195876287,60.0,97.41345005968961,0.0,96.98113207547169,0.0,81.94444444444444,14.285714285714285,6.521739130434782,50.0,25.0
0.0,30.218068535825545,34.48275862068966,14.432989690721648,0.0,96.1400716275368,12.5,91.69811320754717,0.0,97.22222222222221,14.285714285714285,50.0,83.33333333333334,75.0
0.0,35.82554517133956,3.4482758620689653,24.742268041237114,20.0,98.24910465578989,0.0,91.32075471698113,0.0,76.38888888888889,0.0,0.0,66.66666666666666,25.0
0.0,28.971962616822427,17.24137931034483,6.185567010309279,80.0,98.52765618782333,0.0,90.18867924528303,3.8461538461538463,86.11111111111111,14.285714285714285,19.565217391304348,66.66666666666666,25.0
0.0,66.35514018691589,20.689655172413794,20.618556701030926,40.0,92.83724631914046,37.5,97.35849056603773,7.6923076923076925,94.44444444444444,28.57142857142857,21.73913043478261,66.66666666666666,25.0
0.0,57.009345794392516,13.793103448275861,55.670103092783506,20.0,93.9116593712694,0.0,96.22641509433963,0.0,93.05555555555556,14.285714285714285,28.26086956521739,66.66666666666666,25.0
0.0,45.482866043613704,55.172413793103445,7.216494845360824,0.0,94.30959013131715,0.0,92.0754716981132,7.6923076923076925,98.61111111111111,28.57142857142857,19.565217391304348,50.0,25.0
0.0,81.61993769470405,3.4482758620689653,15.463917525773196,40.0,88.6191802626343,0.0,94.33962264150944,11.538461538461538,90.27777777777779,28.57142857142857,13.043478260869565,83.33333333333334,50.0
0.0,42.36760124610592,13.793103448275861,41.23711340206185,0.0,94.42896935933148,12.5,97.73584905660377,3.8461538461538463,97.22222222222221,14.285714285714285,21.73913043478261,100.0,50.0
0.0,54.82866043613706,3.4482758620689653,61.855670103092784,20.0,92.51890171110226,0.0,95.47169811320755,3.8461538461538463,70.83333333333334,0.0,8.695652173913043,16.666666666666664,50.0
0.0,12.461059190031152,37.93103448275862,95.87628865979381,0.0,78.59132510943095,0.0,93.20754716981132,7.6923076923076925,55.55555555555556,0.0,0.0,50.0,50.0
0.0,14.018691588785046,20.689655172413794,10.309278350515463,80.0,99.12455232789495,0.0,87.54716981132076,3.8461538461538463,69.44444444444444,14.285714285714285,0.0,83.33333333333334,75.0
0.0,57.63239875389408,6.896551724137931,3.0927835051546393,20.0,95.42379625945085,25.0,94.71698113207547,3.8461538461538463,95.83333333333334,28.57142857142857,0.0,83.33333333333334,75.0
0.0,76.01246105919003,10.344827586206897,10.309278350515463,0.0,87.54476721050537,25.0,96.22641509433963,30.76923076923077,98.61111111111111,0.0,28.26086956521739,33.33333333333333,100.0
0.0,77.88161993769471,24.137931034482758,37.11340206185567,20.0,87.1866295264624,12.5,96.22641509433963,19.230769230769234,98.61111111111111,14.285714285714285,2.1739130434782608,50.0,50.0
0.0,23.05295950155763,3.4482758620689653,26.804123711340207,40.0,96.69717469160366,0.0,96.60377358490567,30.76923076923077,80.55555555555556,0.0,6.521739130434782,100.0,25.0
0.0,32.71028037383177,10.344827586206897,64.94845360824742,0.0,94.30959013131715,0.0,93.20754716981132,11.538461538461538,36.11111111111111,28.57142857142857,0.0,33.33333333333333,25.0
0.0,48.28660436137071,17.24137931034483,9.278350515463918,0.0,95.9808993235177,0.0,89.05660377358491,0.0,93.05555555555556,0.0,15.217391304347828,66.66666666666666,0.0
0.0,23.05295950155763,20.689655172413794,27.835051546391753,20.0,97.53282928770393,12.5,96.22641509433963,0.0,75.0,0.0,17.391304347826086,83.33333333333334,75.0
0.0,32.398753894081,13.793103448275861,72.16494845360825,0.0,94.58814166335058,0.0,95.84905660377359,0.0,93.05555555555556,14.285714285714285,4.3478260869565215,66.66666666666666,50.0
0.0,9.657320872274143,62.06896551724138,4.123711340206185,0.0,98.0899323517708,0.0,91.69811320754717,0.0,72.22222222222221,28.57142857142857,15.217391304347828,66.66666666666666,25.0
0.0,31.464174454828658,6.896551724137931,41.23711340206185,60.0,96.7767608436132,25.0,94.71698113207547,0.0,87.5,0.0,4.3478260869565215,33.33333333333333,0.0
0.0,9.034267912772584,24.137931034482758,7.216494845360824,80.0,86.11221647433347,0.0,92.45283018867924,65.38461538461539,88.88888888888889,71.42857142857143,8.695652173913043,66.66666666666666,25.0
0.0,68.84735202492212,10.344827586206897,15.463917525773196,20.0,93.39434938320733,25.0,96.60377358490567,0.0,77.77777777777779,14.285714285714285,2.1739130434782608,100.0,50.0
0.0,38.31775700934579,10.344827586206897,55.670103092783506,60.0,78.19339434938321,12.5,99.62264150943396,57.692307692307686,93.05555555555556,57.14285714285714,15.217391304347828,50.0,100.0
0.0,59.50155763239875,24.137931034482758,50.51546391752577,0.0,92.20055710306406,0.0,95.84905660377359,0.0,97.22222222222221,0.0,15.217391304347828,66.66666666666666,25.0
0.0,48.28660436137071,31.03448275862069,48.45360824742268,40.0,93.7524870672503,0.0,96.60377358490567,3.8461538461538463,97.22222222222221,28.57142857142857,23.91304347826087,83.33333333333334,50.0
0.0,84.11214953271028,17.24137931034483,2.0618556701030926,0.0,89.77317946677277,12.5,95.84905660377359,0.0,98.61111111111111,14.285714285714285,0.0,50.0,50.0
0.0,50.467289719626166,34.48275862068966,4.123711340206185,60.0,96.97572622363708,0.0,93.58490566037736,3.8461538461538463,88.88888888888889,0.0,32.608695652173914,66.66666666666666,25.0
0.0,83.17757009345794,0.0,28.865979381443296,60.0,90.13131715081576,0.0,98.11320754716981,0.0,93.05555555555556,28.57142857142857,4.3478260869565215,66.66666666666666,100.0
0.0,19.626168224299064,0.0,3.0927835051546393,0.0,97.13489852765619,0.0,95.47169811320755,7.6923076923076925,90.27777777777779,14.285714285714285,47.82608695652174,83.33333333333334,25.0
0.0,23.67601246105919,20.689655172413794,25.773195876288657,20.0,98.36848388380422,0.0,93.20754716981132,3.8461538461538463,87.5,14.285714285714285,6.521739130434782,66.66666666666666,25.0
0.0,23.67601246105919,31.03448275862069,15.463917525773196,40.0,98.36848388380422,0.0,93.9622641509434,0.0,88.88888888888889,28.57142857142857,0.0,66.66666666666666,0.0
0.0,49.532710280373834,31.03448275862069,61.855670103092784,0.0,94.58814166335058,0.0,91.32075471698113,3.8461538461538463,80.55555555555556,14.285714285714285,21.73913043478261,50.0,50.0
0.0,57.009345794392516,3.4482758620689653,31.958762886597935,20.0,93.7524870672503,0.0,96.22641509433963,11.538461538461538,90.27777777777779,14.285714285714285,32.608695652173914,16.666666666666664,100.0
0.0,70.09345794392523,37.93103448275862,3.0927835051546393,60.0,92.51890171110226,0.0,93.9622641509434,0.0,90.27777777777779,28.57142857142857,41.30434782608695,66.66666666666666,25.0
0.0,38.006230529595015,0.0,13.402061855670103,20.0,97.49303621169916,0.0,86.41509433962264,11.538461538461538,68.05555555555556,0.0,23.91304347826087,33.33333333333333,50.0
0.0,42.05607476635514,3.4482758620689653,32.98969072164948,40.0,96.57779546358934,12.5,92.83018867924528,0.0,51.388888888888886,28.57142857142857,0.0,33.33333333333333,0.0
0.0,54.82866043613706,20.689655172413794,32.98969072164948,20.0,94.15041782729804,0.0,97.73584905660377,7.6923076923076925,84.72222222222221,28.57142857142857,10.869565217391305,83.33333333333334,75.0
0.0,40.809968847352025,37.93103448275862,29.896907216494846,60.0,92.08117787504975,0.0,94.71698113207547,0.0,90.27777777777779,28.57142857142857,23.91304347826087,66.66666666666666,25.0
100.0,71.96261682242991,51.724137931034484,1.0309278350515463,40.0,89.13649025069638,0.0,94.33962264150944,0.0,91.66666666666666,57.14285714285714,4.3478260869565215,66.66666666666666,50.0
0.0,68.84735202492212,17.24137931034483,44.329896907216494,0.0,90.92717867091126,25.0,93.20754716981132,15.384615384615385,94.44444444444444,42.857142857142854,4.3478260869565215,66.66666666666666,50.0
33.33333333333333,62.30529595015576,24.137931034482758,0.0,40.0,91.64345403899722,50.0,96.60377358490567,7.6923076923076925,88.88888888888889,0.0,45.65217391304348,83.33333333333334,75.0
0.0,66.04361370716511,17.24137931034483,53.608247422680414,0.0,89.45483485873457,12.5,97.35849056603773,3.8461538461538463,88.88888888888889,28.57142857142857,67.3913043478261,50.0,0.0
0.0,41.74454828660436,17.24137931034483,3.0927835051546393,20.0,96.458416235575,25.0,93.58490566037736,26.923076923076923,95.83333333333334,28.57142857142857,54.347826086956516,66.66666666666666,0.0
0.0,50.155763239875384,31.03448275862069,23.711340206185564,0.0,93.31476323119777,0.0,95.84905660377359,26.923076923076923,95.83333333333334,28.57142857142857,2.1739130434782608,83.33333333333334,50.0
0.0,73.20872274143302,27.586206896551722,30.927835051546392,0.0,88.57938718662952,0.0,92.0754716981132,69.23076923076923,95.83333333333334,14.285714285714285,10.869565217391305,66.66666666666666,75.0
0.0,19.314641744548286,13.793103448275861,26.804123711340207,60.0,96.93593314763231,0.0,96.98113207547169,3.8461538461538463,63.888888888888886,14.285714285714285,2.1739130434782608,83.33333333333334,25.0
0.0,38.62928348909657,24.137931034482758,69.0721649484536,0.0,94.66772781536012,12.5,86.79245283018868,0.0,83.33333333333334,42.857142857142854,6.521739130434782,50.0,25.0
0.0,78.50467289719626,31.03448275862069,3.0927835051546393,40.0,87.02745722244329,0.0,98.49056603773585,0.0,93.05555555555556,14.285714285714285,8.695652173913043,66.66666666666666,0.0
0.0,89.7196261682243,34.48275862068966,11.34020618556701,0.0,84.63987266215679,0.0,94.71698113207547,0.0,93.05555555555556,14.285714285714285,2.1739130434782608,50.0,75.0
0.0,49.22118380062305,10.344827586206897,53.608247422680414,0.0,94.46876243533625,0.0,98.11320754716981,15.384615384615385,83.33333333333334,0.0,4.3478260869565215,100.0,100.0
0.0,66.66666666666666,37.93103448275862,15.463917525773196,0.0,90.96697174691603,37.5,96.98113207547169,23.076923076923077,90.27777777777779,0.0,17.391304347826086,66.66666666666666,0.0
0.0,52.64797507788161,10.344827586206897,25.773195876288657,0.0,95.30441703143653,0.0,93.20754716981132,11.538461538461538,83.33333333333334,28.57142857142857,36.95652173913043,50.0,25.0
0.0,19.626168224299064,0.0,34.02061855670103,60.0,98.28889773179466,0.0,90.9433962264151,0.0,44.44444444444444,0.0,17.391304347826086,50.0,0.0
0.0,66.66666666666666,17.24137931034483,70.10309278350515,40.0,88.26104257859132,0.0,84.90566037735849,15.384615384615385,93.05555555555556,57.14285714285714,52.17391304347826,16.666666666666664,100.0
0.0,43.925233644859816,6.896551724137931,37.11340206185567,0.0,96.02069239952247,0.0,92.83018867924528,0.0,72.22222222222221,14.285714285714285,36.95652173913043,66.66666666666666,75.0
0.0,45.794392523364486,10.344827586206897,11.34020618556701,20.0,96.06048547552726,0.0,95.47169811320755,3.8461538461538463,88.88888888888889,14.285714285714285,39.130434782608695,83.33333333333334,50.0
0.0,86.29283489096574,24.137931034482758,1.0309278350515463,40.0,88.38042180660565,25.0,91.69811320754717,0.0,94.44444444444444,0.0,34.78260869565217,83.33333333333334,25.0
0.0,84.42367601246106,27.586206896551722,78.35051546391753,60.0,77.75567051333067,0.0,96.22641509433963,3.8461538461538463,100.0,14.285714285714285,2.1739130434782608,33.33333333333333,25.0
0.0,30.218068535825545,0.0,10.309278350515463,80.0,97.65220851571826,0.0,97.35849056603773,7.6923076923076925,84.72222222222221,14.285714285714285,2.1739130434782608,66.66666666666666,50.0
0.0,77.88161993769471,10.344827586206897,56.70103092783505,0.0,89.33545563072025,0.0,95.47169811320755,11.538461538461538,97.22222222222221,0.0,2.1739130434782608,50.0,50.0
0.0,59.19003115264797,27.586206896551722,0.0,0.0,91.8424194190211,0.0,98.86792452830188,0.0,86.11111111111111,14.285714285714285,10.869565217391305,83.33333333333334,75.0
0.0,73.83177570093457,20.689655172413794,26.804123711340207,20.0,92.00159172304019,0.0,96.98113207547169,15.384615384615385,87.5,14.285714285714285,8.695652173913043,33.33333333333333,75.0
0.0,50.77881619937694,0.0,16.49484536082474,20.0,96.81655391961799,0.0,95.84905660377359,0.0,87.5,0.0,6.521739130434782,83.33333333333334,100.0
0.0,80.37383177570094,6.896551724137931,4.123711340206185,0.0,87.02745722244329,0.0,98.49056603773585,0.0,97.22222222222221,42.857142857142854,63.04347826086957,50.0,50.0
0.0,36.7601246105919,10.344827586206897,20.618556701030926,60.0,96.69717469160366,25.0,77.35849056603774,3.8461538461538463,94.44444444444444,28.57142857142857,2.1739130434782608,50.0,50.0
0.0,71.33956386292834,20.689655172413794,74.22680412371135,0.0,85.23676880222841,25.0,93.58490566037736,42.30769230769231,90.27777777777779,28.57142857142857,45.65217391304348,100.0,25.0
0.0,47.0404984423676,13.793103448275861,20.618556701030926,0.0,97.37365698368484,0.0,88.67924528301887,3.8461538461538463,93.05555555555556,42.857142857142854,4.3478260869565215,83.33333333333334,50.0
0.0,82.2429906542056,10.344827586206897,12.371134020618557,0.0,89.13649025069638,12.5,94.33962264150944,0.0,93.05555555555556,14.285714285714285,4.3478260869565215,50.0,50.0
0.0,63.2398753894081,24.137931034482758,8.24742268041237,20.0,79.26780740151213,0.0,99.62264150943396,42.30769230769231,93.05555555555556,0.0,19.565217391304348,66.66666666666666,75.0
0.0,66.35514018691589,3.4482758620689653,10.309278350515463,40.0,94.0708316752885,0.0,97.35849056603773,7.6923076923076925,52.77777777777778,28.57142857142857,17.391304347826086,66.66666666666666,50.0
0.0,64.48598130841121,6.896551724137931,70.10309278350515,0.0,92.43931555909272,0.0,87.16981132075472,0.0,40.27777777777778,0.0,0.0,83.33333333333334,25.0
0.0,73.83177570093457,13.793103448275861,12.371134020618557,0.0,90.64862713887784,12.5,97.35849056603773,7.6923076923076925,94.44444444444444,14.285714285714285,30.434782608695656,33.33333333333333,0.0
0.0,76.94704049844236,10.344827586206897,17.525773195876287,60.0,90.01193792280144,0.0,85.28301886792453,11.538461538461538,76.38888888888889,14.285714285714285,13.043478260869565,33.33333333333333,100.0
0.0,32.087227414330215,17.24137931034483,61.855670103092784,0.0,96.21965777954637,12.5,92.45283018867924,0.0,87.5,0.0,6.521739130434782,66.66666666666666,75.0
0.0,35.82554517133956,13.793103448275861,12.371134020618557,0.0,95.02586549940311,0.0,96.60377358490567,23.076923076923077,86.11111111111111,57.14285714285714,30.434782608695656,66.66666666666666,50.0
0.0,26.791277258566975,20.689655172413794,16.49484536082474,0.0,98.32869080779945,37.5,85.28301886792453,3.8461538461538463,70.83333333333334,0.0,6.521739130434782,83.33333333333334,50.0
0.0,78.81619937694704,6.896551724137931,14.432989690721648,20.0,92.39952248308795,0.0,98.11320754716981,0.0,76.38888888888889,57.14285714285714,2.1739130434782608,50.0,50.0
0.0,47.97507788161994,13.793103448275861,24.742268041237114,20.0,96.21965777954637,0.0,84.52830188679246,7.6923076923076925,44.44444444444444,85.71428571428571,0.0,33.33333333333333,0.0
33.33333333333333,66.35514018691589,0.0,70.10309278350515,0.0,87.42538798249105,37.5,97.73584905660377,26.923076923076923,91.66666666666666,42.857142857142854,2.1739130434782608,66.66666666666666,50.0
0.0,84.73520249221184,13.793103448275861,8.24742268041237,0.0,89.97214484679665,25.0,89.05660377358491,0.0,90.27777777777779,14.285714285714285,2.1739130434782608,100.0,75.0
0.0,52.95950155763239,17.24137931034483,0.0,20.0,95.70234779148427,25.0,95.84905660377359,7.6923076923076925,90.27777777777779,28.57142857142857,8.695652173913043,66.66666666666666,25.0
0.0,25.233644859813083,48.275862068965516,7.216494845360824,0.0,97.49303621169916,0.0,93.9622641509434,7.6923076923076925,97.22222222222221,0.0,19.565217391304348,50.0,75.0
0.0,70.7165109034268,10.344827586206897,70.10309278350515,40.0,88.22124950258655,12.5,95.47169811320755,3.8461538461538463,94.44444444444444,14.285714285714285,0.0,50.0,75.0
0.0,38.940809968847354,13.793103448275861,11.34020618556701,0.0,97.81138081973737,0.0,93.58490566037736,3.8461538461538463,66.66666666666666,14.285714285714285,6.521739130434782,66.66666666666666,50.0
0.0,69.1588785046729,17.24137931034483,26.804123711340207,0.0,89.85276561878233,0.0,95.84905660377359,30.76923076923077,94.44444444444444,0.0,15.217391304347828,66.66666666666666,25.0
0.0,60.43613707165109,17.24137931034483,67.0103092783505,40.0,90.09152407481098,12.5,98.86792452830188,3.8461538461538463,90.27777777777779,14.285714285714285,0.0,66.66666666666666,75.0
0.0,62.928348909657316,13.793103448275861,16.49484536082474,60.0,94.58814166335058,0.0,81.50943396226415,0.0,66.66666666666666,14.285714285714285,2.1739130434782608,100.0,25.0
33.33333333333333,58.87850467289719,37.93103448275862,32.98969072164948,0.0,94.3891762833267,0.0,95.09433962264151,0.0,90.27777777777779,0.0,19.565217391304348,33.33333333333333,25.0
0.0,87.22741433021807,3.4482758620689653,34.02061855670103,0.0,83.20732192598487,0.0,96.98113207547169,0.0,91.66666666666666,28.57142857142857,17.391304347826086,50.0,100.0
0.0,75.38940809968847,10.344827586206897,18.556701030927837,20.0,91.5240748109829,0.0,97.35849056603773,0.0,80.55555555555556,28.57142857142857,2.1739130434782608,100.0,25.0
0.0,76.32398753894081,6.896551724137931,4.123711340206185,40.0,92.75766016713092,12.5,95.47169811320755,0.0,90.27777777777779,14.285714285714285,6.521739130434782,83.33333333333334,50.0
0.0,70.7165109034268,3.4482758620689653,15.463917525773196,0.0,92.87703939514525,0.0,95.84905660377359,0.0,97.22222222222221,14.285714285714285,47.82608695652174,66.66666666666666,75.0
0.0,88.1619937694704,6.896551724137931,5.154639175257731,80.0,82.72980501392759,0.0,92.0754716981132,0.0,95.83333333333334,14.285714285714285,56.52173913043478,33.33333333333333,75.0
0.0,51.09034267912772,20.689655172413794,63.91752577319587,0.0,93.27497015519299,37.5,95.84905660377359,15.384615384615385,80.55555555555556,28.57142857142857,0.0,33.33333333333333,25.0
0.0,36.7601246105919,27.586206896551722,35.051546391752574,20.0,92.95662554715479,0.0,97.73584905660377,0.0,79.16666666666666,42.857142857142854,45.65217391304348,50.0,50.0
0.0,85.98130841121495,10.344827586206897,25.773195876288657,20.0,85.67449263828094,0.0,95.09433962264151,26.923076923076923,95.83333333333334,0.0,2.1739130434782608,50.0,75.0
0.0,36.44859813084112,20.689655172413794,25.773195876288657,40.0,97.33386390768007,0.0,94.71698113207547,3.8461538461538463,73.61111111111111,14.285714285714285,10.869565217391305,100.0,50.0
0.0,75.38940809968847,3.4482758620689653,3.0927835051546393,40.0,93.27497015519299,0.0,95.84905660377359,0.0,73.61111111111111,14.285714285714285,2.1739130434782608,16.666666666666664,100.0
0.0,40.809968847352025,6.896551724137931,36.08247422680412,0.0,94.5483485873458,12.5,95.47169811320755,15.384615384615385,91.66666666666666,42.857142857142854,56.52173913043478,33.33333333333333,25.0
0.0,22.741433021806852,31.03448275862069,4.123711340206185,0.0,99.08475925189018,12.5,92.83018867924528,0.0,87.5,14.285714285714285,2.1739130434782608,66.66666666666666,50.0
0.0,27.102803738317753,3.4482758620689653,7.216494845360824,0.0,97.93076004775169,0.0,85.28301886792453,0.0,76.38888888888889,0.0,54.347826086956516,66.66666666666666,50.0
0.0,53.271028037383175,3.4482758620689653,11.34020618556701,20.0,97.57262236370872,0.0,88.30188679245283,0.0,30.555555555555557,0.0,36.95652173913043,66.66666666666666,50.0
0.0,59.19003115264797,44.827586206896555,88.65979381443299,0.0,82.29208117787505,0.0,92.45283018867924,7.6923076923076925,87.5,0.0,4.3478260869565215,66.66666666666666,100.0
0.0,62.928348909657316,10.344827586206897,23.711340206185564,20.0,92.79745324313569,12.5,97.73584905660377,0.0,94.44444444444444,14.285714285714285,13.043478260869565,33.33333333333333,100.0
0.0,40.49844236760124,10.344827586206897,13.402061855670103,20.0,97.53282928770393,0.0,91.69811320754717,0.0,87.5,0.0,10.869565217391305,83.33333333333334,75.0
0.0,71.02803738317756,17.24137931034483,29.896907216494846,60.0,89.57421408674891,12.5,92.45283018867924,19.230769230769234,97.22222222222221,14.285714285714285,34.78260869565217,100.0,50.0
0.0,44.85981308411215,44.827586206896555,20.618556701030926,40.0,93.79228014325507,12.5,95.47169811320755,3.8461538461538463,97.22222222222221,42.857142857142854,60.86956521739131,50.0,50.0
0.0,83.48909657320873,27.586206896551722,6.185567010309279,0.0,85.2765618782332,12.5,97.73584905660377,7.6923076923076925,95.83333333333334,28.57142857142857,8.695652173913043,66.66666666666666,25.0
33.33333333333333,34.890965732087224,31.03448275862069,0.0,20.0,92.95662554715479,12.5,97.35849056603773,19.230769230769234,91.66666666666666,28.57142857142857,45.65217391304348,66.66666666666666,75.0
0.0,50.467289719626166,55.172413793103445,24.742268041237114,0.0,94.58814166335058,12.5,91.32075471698113,0.0,79.16666666666666,14.285714285714285,21.73913043478261,66.66666666666666,25.0
0.0,38.006230529595015,3.4482758620689653,3.0927835051546393,0.0,97.73179466772781,0.0,96.60377358490567,0.0,65.27777777777779,28.57142857142857,8.695652173913043,66.66666666666666,0.0
0.0,87.22741433021807,3.4482758620689653,57.73195876288659,0.0,66.69319538400318,0.0,89.43396226415095,76.92307692307693,93.05555555555556,14.285714285714285,8.695652173913043,100.0,0.0
0.0,62.30529595015576,10.344827586206897,16.49484536082474,40.0,93.03621169916435,0.0,96.22641509433963,19.230769230769234,93.05555555555556,28.57142857142857,21.73913043478261,50.0,50.0
33.33333333333333,76.32398753894081,10.344827586206897,16.49484536082474,20.0,90.44966175885396,37.5,92.45283018867924,0.0,84.72222222222221,14.285714285714285,36.95652173913043,33.33333333333333,50.0
0.0,48.90965732087228,17.24137931034483,4.123711340206185,40.0,95.50338241146041,12.5,98.11320754716981,0.0,87.5,57.14285714285714,0.0,66.66666666666666,75.0
0.0,53.58255451713395,27.586206896551722,53.608247422680414,20.0,93.51372861122165,12.5,94.33962264150944,11.538461538461538,94.44444444444444,14.285714285714285,0.0,50.0,50.0
0.0,77.25856697819314,24.137931034482758,34.02061855670103,40.0,78.0342220453641,0.0,98.49056603773585,50.0,98.61111111111111,14.285714285714285,58.69565217391305,83.33333333333334,25.0
0.0,53.89408099688473,27.586206896551722,17.525773195876287,40.0,95.54317548746518,0.0,91.69811320754717,3.8461538461538463,94.44444444444444,42.857142857142854,41.30434782608695,66.66666666666666,100.0
