AB,AFIB,AFL,B,IVR,N,NOD,P,PREX,SBR,SVTA,T,VFL,VT
1.2448132780082988,32.857142857142854,0.4149377593360996,12.560386473429952,6.557377049180328,93.52014010507881,0.25380710659898476,78.57142857142857,4.0,23.741007194244602,2.2058823529411766,14.634146341463413,66.66666666666666,2.666666666666667
0.8928571428571428,31.868131868131865,0.3861003861003861,14.138817480719796,5.769230769230769,92.44094488188976,0.6578947368421052,81.37931034482759,3.375527426160337,25.461254612546124,3.3783783783783785,10.294117647058822,66.66666666666666,2.083333333333333
0.7905138339920948,26.635514018691588,0.0,13.648293963254593,7.017543859649122,94.15807560137456,0.24271844660194172,79.87421383647799,4.387990762124711,23.616236162361623,1.5228426395939088,21.518987341772153,100.0,3.5294117647058822
1.185770750988142,28.888888888888886,0.0,13.559322033898304,6.976744186046512,94.98567335243553,0.48543689320388345,87.5,2.8446389496717726,23.972602739726025,1.4925373134328357,11.594202898550725,100.0,2.608695652173913
0.8658008658008658,33.649289099526065,0.7692307692307693,14.40443213296399,5.88235294117647,93.15960912052117,0.702576112412178,79.60526315789474,2.9106029106029108,26.640926640926644,2.3952095808383236,16.853932584269664,66.66666666666666,2.083333333333333
0.7633587786259541,33.50253807106599,0.8130081300813009,13.157894736842104,7.017543859649122,94.33962264150944,0.24330900243309003,83.97435897435898,2.9585798816568047,23.076923076923077,2.34375,15.66265060240964,100.0,2.912621359223301
1.2345679012345678,27.906976744186046,1.2,13.841807909604519,7.317073170731707,93.09791332263242,0.23923444976076555,76.31578947368422,2.4096385542168677,24.27536231884058,1.948051948051948,19.480519480519483,100.0,3.0927835051546393
1.2605042016806722,31.5,0.38167938931297707,13.09823677581864,5.263157894736842,91.66666666666666,0.0,75.49668874172185,2.8634361233480177,23.239436619718308,0.5291005291005291,13.580246913580247,100.0,2.9702970297029703
1.1194029850746268,29.66101694915254,0.3597122302158274,13.29639889196676,5.88235294117647,93.02325581395348,0.5208333333333333,76.55172413793103,2.564102564102564,24.100719424460433,3.0303030303030303,17.5,71.42857142857143,2.6785714285714284
0.847457627118644,30.0,0.9216589861751152,13.623978201634879,6.666666666666667,93.96170839469808,0.45871559633027525,80.13245033112582,2.3605150214592276,21.85430463576159,3.8461538461538463,16.666666666666664,100.0,2.8301886792452833
1.3574660633484164,35.02304147465438,0.4166666666666667,14.87603305785124,5.660377358490567,93.73913043478261,0.0,77.63975155279503,3.353057199211045,25.18796992481203,0.5747126436781609,16.883116883116884,100.0,3.125
0.8438818565400843,32.55813953488372,0.4524886877828055,12.228260869565217,3.4482758620689653,91.98664440734558,0.0,74.09638554216868,3.5294117647058822,22.442244224422442,2.941176470588235,15.909090909090908,25.0,3.0
0.0,32.3943661971831,0.36900369003690037,12.747875354107649,5.084745762711865,92.38938053097345,0.6036217303822937,75.35211267605634,2.8846153846153846,24.907063197026023,0.5128205128205128,14.102564102564102,80.0,3.7383177570093453
0.9836065573770493,34.95145631067961,0.0,14.43850267379679,9.523809523809524,93.20388349514563,0.7317073170731708,78.61635220125787,2.834008097165992,23.595505617977526,2.479338842975207,15.942028985507244,100.0,2.4390243902439024
1.2605042016806722,29.957805907172997,0.0,14.250614250614252,9.75609756097561,92.36641221374046,0.28735632183908044,79.14110429447852,2.666666666666667,25.37313432835821,0.7168458781362007,16.176470588235293,75.0,4.3478260869565215
0.8771929824561403,27.84313725490196,0.7604562737642585,14.681440443213297,6.349206349206349,93.95085066162571,0.6756756756756757,81.08108108108108,3.4693877551020407,26.848249027237355,0.47393364928909953,19.402985074626866,100.0,3.5294117647058822
0.966183574879227,31.645569620253166,0.35842293906810035,13.136729222520108,7.4074074074074066,93.85474860335195,0.24937655860349126,76.31578947368422,2.8077753779697625,22.151898734177212,2.450980392156863,9.090909090909092,100.0,4.49438202247191
1.5228426395939088,36.0655737704918,0.4166666666666667,12.793733681462141,7.936507936507936,94.07407407407408,0.44742729306487694,79.19463087248322,3.5416666666666665,24.65753424657534,0.8064516129032258,12.941176470588237,100.0,2.1505376344086025
1.5789473684210527,32.69230769230769,1.2711864406779663,12.054794520547945,7.8431372549019605,93.16239316239316,0.8080808080808081,75.60975609756098,3.564356435643564,26.61596958174905,1.2345679012345678,12.82051282051282,100.0,3.0927835051546393
1.1811023622047243,31.03448275862069,0.0,14.15929203539823,5.88235294117647,92.52971137521222,0.5050505050505051,71.67630057803468,2.0325203252032518,26.446280991735538,1.3245033112582782,17.073170731707318,100.0,2.0
1.2552301255230125,29.951690821256037,0.7299270072992701,13.043478260869565,4.761904761904762,93.89830508474576,0.5,80.24691358024691,2.8368794326241136,23.208191126279864,2.73972602739726,16.901408450704224,100.0,2.272727272727273
0.40816326530612246,30.0,1.1583011583011582,14.24802110817942,5.0,94.22442244224423,0.7481296758104738,81.437125748503,2.0408163265306123,25.468164794007492,4.166666666666666,13.88888888888889,100.0,2.247191011235955
0.78125,27.27272727272727,1.2195121951219512,14.917127071823206,6.976744186046512,93.04812834224599,0.0,76.19047619047619,3.339517625231911,23.741007194244602,1.4285714285714286,10.38961038961039,100.0,3.8095238095238098
0.904977375565611,33.99014778325123,0.4032258064516129,14.049586776859504,8.16326530612245,93.91447368421053,0.4464285714285714,83.33333333333334,2.2448979591836733,26.459143968871597,1.875,15.384615384615385,80.0,2.912621359223301
0.8771929824561403,29.896907216494846,0.6872852233676976,11.71875,10.204081632653061,93.12267657992564,0.5305039787798408,79.65116279069767,2.8169014084507045,23.809523809523807,0.8771929824561403,16.666666666666664,66.66666666666666,1.1904761904761905
1.2711864406779663,39.26940639269406,0.0,15.288220551378446,4.6875,93.29388560157791,0.0,73.24840764331209,2.092050209205021,22.97734627831715,0.8032128514056224,14.285714285714285,75.0,1.4084507042253522
0.7692307692307693,30.373831775700932,1.282051282051282,13.934426229508196,6.8181818181818175,93.81443298969072,0.22522522522522523,76.96969696969697,3.0120481927710845,21.54340836012862,3.418803418803419,18.072289156626507,100.0,3.6585365853658534
1.2048192771084338,31.390134529147986,0.0,12.66490765171504,7.4074074074074066,94.05737704918032,0.0,78.62595419847328,2.8517110266159698,24.90974729241877,1.4285714285714286,13.414634146341465,100.0,1.9801980198019802
1.056338028169014,26.69683257918552,0.45045045045045046,14.444444444444443,6.896551724137931,94.60641399416909,0.2380952380952381,79.375,3.160270880361174,22.74247491638796,5.128205128205128,10.975609756097562,100.0,3.488372093023256
0.8097165991902834,33.80952380952381,0.0,11.614730878186968,7.142857142857142,94.48160535117057,0.0,76.12903225806451,3.2193158953722336,24.65277777777778,3.875968992248062,18.75,100.0,3.8461538461538463
0.9478672985781991,33.87755102040816,0.3597122302158274,12.26158038147139,6.666666666666667,93.40866290018832,0.5509641873278237,78.83211678832117,3.5416666666666665,23.591549295774648,0.6825938566552902,14.285714285714285,100.0,1.7543859649122806
0.823045267489712,30.808080808080806,0.390625,13.26530612244898,9.75609756097561,93.9117199391172,0.0,83.33333333333334,2.079002079002079,24.528301886792452,3.3057851239669422,12.941176470588237,36.36363636363637,3.1578947368421053
1.1764705882352942,33.33333333333333,1.6260162601626018,14.64088397790055,5.88235294117647,92.25806451612904,0.0,75.60975609756098,2.3300970873786406,23.357664233576642,1.8181818181818181,20.238095238095237,100.0,3.125
0.7352941176470588,30.660377358490564,0.7751937984496124,12.021857923497267,7.6923076923076925,93.01470588235294,0.25125628140703515,80.12820512820514,2.3346303501945527,23.076923076923077,1.5873015873015872,17.441860465116278,80.0,3.3333333333333335
1.0676156583629894,29.565217391304348,0.0,14.248704663212436,8.928571428571429,94.02092675635276,0.2352941176470588,78.43137254901961,2.517162471395881,26.591760299625467,1.0869565217391304,11.904761904761903,50.0,3.061224489795918
0.8333333333333334,30.927835051546392,1.0638297872340425,13.672922252010725,6.666666666666667,93.5126582278481,0.27100271002710025,80.76923076923077,1.7204301075268817,22.333333333333332,0.5847953216374269,8.21917808219178,83.33333333333334,2.083333333333333
1.2448132780082988,31.73076923076923,0.7782101167315175,13.350785340314136,6.896551724137931,93.22033898305084,0.9546539379474941,78.18181818181819,2.9644268774703555,26.23574144486692,1.9047619047619049,15.068493150684931,21.428571428571427,4.0
1.2345679012345678,32.25806451612903,0.796812749003984,12.804878048780488,8.333333333333332,90.98939929328623,1.0869565217391304,78.94736842105263,2.2222222222222223,24.0,1.5,16.853932584269664,60.0,3.3707865168539324
0.4016064257028112,31.57894736842105,0.39370078740157477,13.94736842105263,7.547169811320755,94.07176287051482,0.2557544757033248,75.42857142857143,2.3255813953488373,22.508038585209004,3.7037037037037033,14.893617021276595,50.0,1.3513513513513513
0.9933774834437087,35.54502369668246,0.8163265306122449,13.661202185792352,6.557377049180328,93.25259515570934,0.25316455696202533,76.59574468085107,2.642276422764228,24.23076923076923,1.0256410256410255,15.492957746478872,100.0,1.2195121951219512
0.796812749003984,28.292682926829265,0.7843137254901961,13.29639889196676,6.779661016949152,93.74068554396423,0.24449877750611246,84.07643312101911,3.0303030303030303,24.087591240875913,1.183431952662722,12.359550561797752,100.0,0.0
0.9966777408637874,29.09090909090909,0.0,14.805194805194805,7.5,93.53796445880452,0.0,79.47019867549669,2.479338842975207,24.100719424460433,3.571428571428571,9.89010989010989,100.0,2.4096385542168677
1.6042780748663104,27.31707317073171,0.31645569620253167,15.32033426183844,4.0,93.05263157894737,0.0,83.33333333333334,2.433628318584071,23.208191126279864,0.2949852507374631,11.904761904761903,100.0,3.5398230088495577
1.8518518518518516,30.131004366812224,0.0,13.223140495867769,9.090909090909092,93.12169312169311,0.398406374501992,85.23489932885906,2.3856858846918487,25.18248175182482,2.547770700636943,11.76470588235294,100.0,4.597701149425287
1.0638297872340425,35.754189944134076,0.3731343283582089,12.598425196850393,4.444444444444445,93.96551724137932,0.4728132387706856,75.67567567567568,2.5742574257425743,22.064056939501782,0.819672131147541,14.606741573033707,100.0,3.1578947368421053
1.2345679012345678,30.456852791878177,1.25,15.342465753424658,7.6923076923076925,91.55963302752293,0.0,80.98591549295774,2.882483370288248,24.381625441696116,0.32786885245901637,15.0,100.0,2.0202020202020203
0.9036144578313252,27.979274611398964,0.9216589861751152,13.333333333333334,3.571428571428571,92.7710843373494,0.24213075060532688,77.48344370860927,2.9017857142857144,21.501706484641637,1.2048192771084338,13.513513513513514,71.42857142857143,2.083333333333333
1.2295081967213115,33.4841628959276,1.2448132780082988,15.606936416184972,8.16326530612245,91.69741697416974,0.437636761487965,82.48175182481752,3.462321792260693,24.555160142348754,1.4423076923076923,14.492753623188406,100.0,3.5398230088495577
0.6779661016949152,30.973451327433626,0.7194244604316548,13.37386018237082,10.0,94.35483870967742,0.24630541871921183,79.1044776119403,2.6804123711340204,22.382671480144403,5.263157894736842,14.814814814814813,80.0,2.6785714285714284
0.7751937984496124,31.03448275862069,0.7843137254901961,14.705882352941178,6.779661016949152,91.61676646706587,0.7142857142857143,76.35135135135135,3.7735849056603774,24.363636363636363,1.574803149606299,14.457831325301203,100.0,2.479338842975207
1.171875,32.06751054852321,0.8888888888888888,11.645569620253164,5.714285714285714,93.88794567062818,0.0,77.63975155279503,1.8789144050104383,25.563909774436087,2.9702970297029703,15.068493150684931,100.0,2.380952380952381
1.1494252873563218,34.97757847533632,0.9090909090909091,14.3646408839779,6.122448979591836,95.81993569131832,0.6787330316742082,79.86577181208054,3.411513859275053,23.389830508474578,2.307692307692308,16.455696202531644,0.0,4.2105263157894735
1.090909090909091,33.177570093457945,1.4285714285714286,13.192612137203167,2.941176470588235,94.41624365482234,0.5050505050505051,81.94444444444444,3.8306451612903225,23.52941176470588,1.4084507042253522,19.444444444444446,83.33333333333334,3.571428571428571
1.1673151750972763,34.02061855670103,0.0,13.461538461538462,6.382978723404255,93.82303839732889,0.46728971962616817,79.01234567901234,2.2222222222222223,25.454545454545453,0.7092198581560284,13.333333333333334,100.0,3.361344537815126
1.1811023622047243,34.63414634146341,0.3787878787878788,13.736263736263737,7.6923076923076925,89.66131907308377,0.25316455696202533,74.32432432432432,2.272727272727273,24.814814814814813,0.4807692307692308,18.421052631578945,100.0,2.912621359223301
1.1583011583011582,26.08695652173913,0.9615384615384616,12.737127371273713,8.928571428571429,91.8429003021148,0.7092198581560284,83.1081081081081,2.8017241379310347,24.43609022556391,2.097902097902098,18.666666666666668,83.33333333333334,3.225806451612903
1.2195121951219512,30.09259259259259,0.0,14.444444444444443,8.333333333333332,91.65402124430956,0.5221932114882507,77.85714285714286,2.2988505747126435,21.474358974358974,3.597122302158273,12.32876712328767,75.0,3.488372093023256
0.8733624454148471,27.0,0.0,13.764044943820226,7.017543859649122,93.48837209302326,0.4914004914004914,83.11688311688312,2.3255813953488373,22.875816993464053,2.0100502512562812,18.666666666666668,100.0,3.9215686274509802
0.8368200836820083,26.26728110599078,1.0526315789473684,12.534059945504087,6.0606060606060606,93.89830508474576,0.2702702702702703,79.86577181208054,2.156862745098039,20.743034055727556,3.296703296703297,17.647058823529413,66.66666666666666,3.3333333333333335
0.8888888888888888,31.62393162393162,0.4132231404958678,14.411764705882351,7.142857142857142,92.55663430420712,0.23696682464454977,76.66666666666667,2.5052192066805845,23.920265780730897,2.197802197802198,12.82051282051282,100.0,4.705882352941177
0.7490636704119851,36.492890995260666,0.36900369003690037,10.826210826210826,8.695652173913043,93.22033898305084,0.0,80.0,2.0637898686679175,21.202531645569618,4.301075268817205,14.285714285714285,66.66666666666666,1.1627906976744187
1.0471204188481675,30.837004405286343,0.0,13.279132791327914,8.064516129032258,90.04149377593362,0.4629629629629629,85.0,3.364485981308411,24.175824175824175,0.8130081300813009,15.0,100.0,2.2222222222222223
1.36986301369863,32.065217391304344,0.0,13.600000000000001,5.660377358490567,92.5925925925926,0.7481296758104738,80.51948051948052,3.070175438596491,22.36024844720497,1.0638297872340425,16.25,75.0,1.9230769230769231
0.9950248756218906,30.76923076923077,0.38022813688212925,13.29639889196676,4.25531914893617,93.07692307692308,0.43956043956043955,82.58064516129032,1.7543859649122806,22.962962962962962,2.0408163265306123,10.126582278481013,100.0,3.1914893617021276
0.7782101167315175,27.053140096618357,1.4814814814814816,11.396011396011396,9.090909090909092,93.4959349593496,0.23255813953488372,75.33333333333333,1.9083969465648856,22.021660649819495,2.459016393442623,14.102564102564102,100.0,3.614457831325301
0.4032258064516129,31.313131313131315,1.1673151750972763,14.171122994652407,4.6875,94.42567567567568,0.0,75.15923566878982,3.2679738562091507,22.68041237113402,1.89873417721519,14.942528735632186,100.0,2.912621359223301
1.2987012987012987,28.77358490566038,1.824817518248175,11.924119241192411,6.153846153846154,92.3076923076923,0.7614213197969544,79.26829268292683,2.6128266033254155,23.57142857142857,0.6622516556291391,20.238095238095237,75.0,3.6585365853658534
0.3597122302158274,35.64356435643564,1.1029411764705883,16.101694915254235,6.521739130434782,93.38709677419355,0.4705882352941176,74.375,1.9867549668874174,22.372881355932204,2.5423728813559325,9.30232558139535,100.0,1.1111111111111112
1.1952191235059761,31.674208144796378,0.3731343283582089,11.32596685082873,4.081632653061225,93.63057324840764,0.0,80.3030303030303,2.3706896551724137,23.52941176470588,3.2520325203252036,13.793103448275861,66.66666666666666,3.8461538461538463
0.9090909090909091,26.956521739130434,0.8403361344537815,15.056818181818182,7.6923076923076925,93.65671641791045,0.40733197556008144,80.0,3.5864978902953584,25.454545454545453,0.4629629629629629,14.705882352941178,100.0,3.3707865168539324
0.78125,27.083333333333332,2.11864406779661,14.887640449438203,9.090909090909092,92.26890756302521,0.45977011494252873,74.21383647798741,2.140077821011673,23.389830508474578,2.4,15.584415584415584,100.0,2.608695652173913
0.9771986970684038,28.205128205128204,0.5154639175257731,14.794520547945206,10.416666666666668,93.88429752066115,0.23752969121140144,78.61635220125787,2.857142857142857,24.548736462093864,4.032258064516129,11.956521739130435,60.0,4.938271604938271
1.2658227848101267,33.33333333333333,0.7194244604316548,14.441416893732969,8.108108108108109,93.3641975308642,0.91324200913242,81.45695364238411,3.067484662576687,22.448979591836736,2.3255813953488373,18.29268292682927,100.0,2.3529411764705883
0.8733624454148471,38.50267379679144,1.6129032258064515,13.874345549738221,7.142857142857142,93.82716049382715,0.8456659619450317,72.8395061728395,2.4330900243309004,26.859504132231404,2.4096385542168677,16.091954022988507,75.0,2.803738317757009
1.1673151750972763,32.78688524590164,0.819672131147541,15.281501340482572,5.555555555555555,92.74193548387096,0.45662100456621,75.16339869281046,2.9914529914529915,24.90974729241877,1.342281879194631,14.102564102564102,50.0,3.8461538461538463
0.7722007722007722,35.19553072625698,1.2396694214876034,14.088397790055248,2.564102564102564,93.91447368421053,0.0,75.97402597402598,2.819548872180451,25.274725274725274,1.4814814814814816,12.790697674418606,80.0,2.8301886792452833
0.7905138339920948,34.831460674157306,0.8064516129032258,14.722222222222223,6.666666666666667,93.36734693877551,0.0,75.14792899408283,2.729044834307992,26.01626016260163,2.7586206896551726,17.045454545454543,100.0,2.127659574468085
1.4705882352941175,27.830188679245282,0.796812749003984,14.48087431693989,7.017543859649122,94.26523297491039,0.6185567010309279,81.5068493150685,2.4193548387096775,24.444444444444443,1.5625,15.384615384615385,66.66666666666666,4.761904761904762
1.0638297872340425,31.753554502369667,1.2244897959183674,11.229946524064172,4.0,92.9453262786596,0.4514672686230248,75.91240875912408,3.2586558044806515,25.89641434262948,2.2857142857142856,13.580246913580247,40.0,3.3333333333333335
1.1673151750972763,32.73542600896861,0.0,12.787723785166241,6.521739130434782,92.72727272727272,0.0,80.85106382978722,1.8556701030927836,28.451882845188287,1.5706806282722512,8.974358974358974,100.0,2.803738317757009
1.2711864406779663,36.84210526315789,1.7316017316017316,13.658536585365855,10.204081632653061,92.64,0.42105263157894735,81.45695364238411,2.9585798816568047,26.294820717131472,1.0309278350515463,13.750000000000002,100.0,1.0526315789473684
0.9584664536741214,35.8974358974359,0.0,13.972602739726028,7.547169811320755,92.7797833935018,0.25773195876288657,77.37226277372264,3.2537960954446854,23.776223776223777,1.6042780748663104,14.634146341463413,80.0,2.0618556701030926
0.8733624454148471,30.288461538461537,0.0,15.126050420168067,8.88888888888889,93.49736379613357,0.23148148148148145,80.43478260869566,3.3203125,22.26027397260274,3.3333333333333335,17.857142857142858,71.42857142857143,2.1052631578947367
0.8733624454148471,29.166666666666668,0.8032128514056224,13.648293963254593,5.660377358490567,93.2998324958124,0.6637168141592921,76.92307692307693,2.345415778251599,24.199288256227756,1.8404907975460123,14.285714285714285,100.0,0.0
0.7462686567164178,36.54822335025381,0.3412969283276451,14.242424242424242,6.122448979591836,92.80245022970904,0.0,73.54838709677419,3.2751091703056767,22.299651567944252,2.112676056338028,14.285714285714285,100.0,3.225806451612903
0.78125,29.126213592233007,0.0,14.854111405835543,7.017543859649122,92.48251748251748,0.22935779816513763,78.91156462585033,2.307692307692308,22.635135135135133,2.631578947368421,18.9873417721519,66.66666666666666,1.9607843137254901
1.36986301369863,32.82051282051282,1.6064257028112447,16.519174041297934,5.357142857142857,93.5108153078203,0.5791505791505791,76.28205128205127,3.1512605042016806,25.67049808429119,0.625,16.455696202531644,66.66666666666666,2.2988505747126435
1.2396694214876034,31.506849315068493,0.41841004184100417,13.451776649746192,9.25925925925926,92.18500797448166,0.7177033492822966,81.33333333333333,1.984126984126984,23.655913978494624,2.1505376344086025,11.494252873563218,75.0,1.0869565217391304
1.2658227848101267,37.5,2.1367521367521367,12.531969309462914,5.88235294117647,92.51439539347409,0.4662004662004662,76.64233576642336,2.9598308668076108,24.187725631768952,1.090909090909091,12.222222222222221,50.0,1.2048192771084338
1.2711864406779663,29.04761904761905,1.9011406844106464,13.119533527696792,3.8461538461538463,93.04084720121028,0.25125628140703515,77.1604938271605,2.9473684210526314,23.12925170068027,2.2900763358778624,18.51851851851852,50.0,2.127659574468085
0.7905138339920948,27.160493827160494,0.7092198581560284,14.492753623188406,5.555555555555555,94.02173913043478,0.53475935828877,78.39506172839506,2.4691358024691357,21.172638436482085,2.8735632183908044,13.513513513513514,80.0,3.296703296703297
0.7905138339920948,30.0,0.7604562737642585,16.524216524216524,8.928571428571429,93.51851851851852,0.49627791563275436,80.95238095238095,1.4227642276422763,22.55892255892256,2.5423728813559325,15.789473684210526,100.0,2.3529411764705883
0.7905138339920948,31.838565022421523,0.3952569169960474,14.121037463976945,8.0,94.02092675635276,0.24096385542168677,84.81012658227847,1.9762845849802373,26.41509433962264,1.9607843137254901,13.580246913580247,75.0,4.166666666666666
0.9302325581395349,31.8407960199005,0.3787878787878788,13.623188405797102,5.88235294117647,93.19470699432893,0.646551724137931,76.5432098765432,2.914798206278027,24.285714285714285,0.3875968992248062,10.126582278481013,100.0,1.9417475728155338
1.2552301255230125,31.11111111111111,0.0,14.285714285714285,9.090909090909092,92.63698630136986,0.22026431718061676,78.2312925170068,2.2988505747126435,25.64102564102564,1.015228426395939,16.666666666666664,100.0,2.1739130434782608
1.0638297872340425,35.051546391752574,0.7490636704119851,12.23404255319149,5.357142857142857,92.73021001615508,0.0,77.08333333333334,2.7722772277227725,22.491349480968857,3.4482758620689653,13.924050632911392,80.0,2.941176470588235
0.8849557522123894,28.82882882882883,0.8097165991902834,14.484679665738161,6.25,92.3913043478261,0.22471910112359553,73.125,2.425373134328358,24.727272727272727,1.6574585635359116,16.0,75.0,2.7777777777777777
1.1494252873563218,32.72727272727273,1.1811023622047243,14.361702127659576,9.615384615384617,91.51414309484193,0.24752475247524752,85.61643835616438,3.11284046692607,23.357664233576642,2.4,16.216216216216218,100.0,3.061224489795918
0.9259259259259258,27.014218009478675,1.7937219730941705,13.941018766756033,6.451612903225806,91.52542372881356,0.40404040404040403,77.12418300653596,3.0927835051546393,24.90974729241877,0.4784688995215311,16.0,75.0,2.272727272727273
0.7905138339920948,32.11009174311927,0.4149377593360996,12.094395280235988,7.6923076923076925,93.23529411764706,0.4291845493562232,81.5068493150685,4.2682926829268295,27.66798418972332,3.260869565217391,10.126582278481013,50.0,3.3707865168539324
0.9615384615384616,35.26570048309179,1.098901098901099,11.948051948051948,5.454545454545454,92.4357034795764,0.0,80.3921568627451,3.6036036036036037,24.27536231884058,2.479338842975207,12.162162162162163,80.0,2.127659574468085
1.0582010582010581,25.0,0.3401360544217687,12.386706948640484,7.142857142857142,93.62041467304624,0.4032258064516129,75.0,2.4444444444444446,27.77777777777778,2.34375,12.871287128712872,75.0,2.5
1.0676156583629894,30.373831775700932,0.42194092827004215,13.192612137203167,6.451612903225806,92.03980099502488,0.24813895781637718,77.51479289940828,2.7559055118110236,24.409448818897637,3.90625,15.714285714285714,100.0,1.098901098901099
0.7246376811594203,33.9622641509434,1.3392857142857142,12.18274111675127,6.976744186046512,94.21613394216133,0.2347417840375587,79.48717948717949,3.2327586206896552,23.18339100346021,4.0,13.636363636363635,100.0,3.1578947368421053
1.1494252873563218,30.15075376884422,0.904977375565611,13.636363636363635,7.6923076923076925,93.1782945736434,0.20964360587002098,76.05633802816901,2.515723270440252,23.985239852398525,2.727272727272727,12.5,100.0,1.8018018018018018
0.4524886877828055,29.901960784313726,0.4132231404958678,13.684210526315791,6.0,93.02788844621513,0.6329113924050633,85.1063829787234,2.5925925925925926,24.817518248175183,1.9704433497536946,17.80821917808219,100.0,2.1505376344086025
1.1583011583011582,30.270270270270274,0.8032128514056224,14.44759206798867,4.411764705882353,92.62295081967213,0.0,86.01398601398601,3.024193548387097,24.264705882352942,1.1235955056179776,16.27906976744186,27.27272727272727,3.361344537815126
0.7905138339920948,36.61971830985916,0.8733624454148471,15.294117647058824,9.090909090909092,93.63636363636364,0.5964214711729622,80.74534161490683,3.3210332103321036,25.098039215686274,3.1746031746031744,16.666666666666664,57.14285714285714,2.1052631578947367
0.7782101167315175,31.092436974789916,0.4032258064516129,12.73209549071618,7.6923076923076925,93.18181818181817,0.0,81.87134502923976,2.783300198807157,24.90842490842491,1.7857142857142856,18.51851851851852,100.0,2.8169014084507045
1.2096774193548387,30.909090909090907,0.36496350364963503,11.436170212765957,4.6875,93.93442622950819,0.5037783375314862,81.08108108108108,3.3542976939203357,23.131672597864767,3.8461538461538463,16.25,66.66666666666666,3.296703296703297
1.345291479820628,32.460732984293195,0.3472222222222222,14.588859416445624,9.090909090909092,92.04152249134948,0.24449877750611246,80.48780487804879,1.9650655021834063,25.09090909090909,0.4807692307692308,17.72151898734177,100.0,2.8846153846153846
0.4405286343612335,28.703703703703702,0.37735849056603776,14.713896457765669,9.090909090909092,93.26923076923077,0.9411764705882352,81.09756097560977,2.434077079107505,26.07003891050584,2.272727272727273,15.853658536585366,66.66666666666666,2.912621359223301
0.4784688995215311,30.51643192488263,0.7575757575757576,14.659685863874344,5.633802816901409,94.38405797101449,0.20366598778004072,74.53416149068323,2.586206896551724,26.953125,1.6042780748663104,17.391304347826086,100.0,1.2195121951219512
0.7518796992481203,30.136986301369863,1.282051282051282,13.896457765667575,7.547169811320755,93.70503597122301,0.7058823529411765,82.0,2.631578947368421,25.590551181102363,1.4018691588785046,14.634146341463413,66.66666666666666,2.3529411764705883
0.39215686274509803,39.436619718309856,0.3508771929824561,13.123359580052494,12.195121951219512,92.76094276094277,0.8064516129032258,84.90566037735849,2.2556390977443606,24.242424242424242,2.586206896551724,18.478260869565215,100.0,1.0309278350515463
0.7751937984496124,33.33333333333333,0.38461538461538464,14.600550964187327,8.0,91.54471544715447,0.683371298405467,72.61146496815286,2.5096525096525095,23.18339100346021,4.545454545454546,9.63855421686747,100.0,2.197802197802198
1.2396694214876034,30.697674418604652,0.0,12.903225806451612,5.555555555555555,93.96709323583181,0.2590673575129534,79.14110429447852,2.5052192066805845,22.945205479452056,0.8733624454148471,13.043478260869565,100.0,3.0
1.2875536480686696,25.213675213675213,0.819672131147541,12.953367875647666,6.25,93.14079422382672,0.23364485981308408,80.48780487804879,3.054989816700611,25.0,1.8181818181818181,12.087912087912088,100.0,4.123711340206185
1.4634146341463417,32.01970443349754,1.2552301255230125,12.5,8.16326530612245,93.20809248554913,0.4056795131845842,82.06896551724138,3.0434782608695654,27.755102040816325,3.1578947368421053,19.51219512195122,100.0,1.7543859649122806
1.0135135135135136,28.96174863387978,0.8403361344537815,14.492753623188406,5.555555555555555,93.34500875656742,0.6711409395973155,75.625,2.4539877300613497,23.92156862745098,1.5384615384615385,15.18987341772152,60.0,3.5294117647058822
0.7490636704119851,29.03225806451613,0.7380073800738007,15.09433962264151,2.7027027027027026,93.33333333333333,0.24937655860349126,80.53691275167785,2.510460251046025,24.014336917562723,1.25,13.636363636363635,60.0,4.761904761904762
0.8368200836820083,34.5,0.398406374501992,14.794520547945206,4.166666666666666,92.51592356687898,0.2136752136752137,77.51479289940828,2.4122807017543857,22.837370242214533,2.8846153846153846,14.814814814814813,100.0,3.9603960396039604
1.1406844106463878,29.107981220657276,0.8928571428571428,12.853470437017995,4.444444444444445,91.37931034482759,0.22026431718061676,81.5068493150685,1.956521739130435,27.66798418972332,0.6451612903225806,10.666666666666668,50.0,2.4096385542168677
0.8583690987124464,26.431718061674008,0.6944444444444444,15.159574468085108,6.666666666666667,94.01544401544402,0.547945205479452,80.79470198675497,2.717391304347826,23.411371237458194,1.675977653631285,14.444444444444443,80.0,2.7027027027027026
1.094890510948905,30.973451327433626,1.1764705882352942,13.874345549738221,9.30232558139535,92.3076923076923,0.4889975550122249,82.23684210526315,2.3655913978494625,23.57142857142857,2.4691358024691357,15.853658536585366,100.0,2.0618556701030926
0.8771929824561403,31.627906976744185,0.3703703703703704,12.32876712328767,5.714285714285714,93.73996789727127,0.22935779816513763,82.92682926829268,2.53411306042885,24.315068493150687,2.4691358024691357,14.634146341463413,100.0,0.0
1.2711864406779663,30.476190476190478,1.1363636363636365,11.299435028248588,8.51063829787234,92.69949066213921,0.0,77.85714285714286,1.9522776572668112,24.731182795698924,2.3923444976076556,17.441860465116278,100.0,3.571428571428571
0.5649717514124294,30.102040816326532,0.390625,14.728682170542637,5.263157894736842,94.7098976109215,0.87527352297593,77.24137931034483,2.8747433264887063,23.367697594501717,1.507537688442211,20.588235294117645,83.33333333333334,3.3333333333333335
1.0344827586206897,26.285714285714285,0.9900990099009901,12.27154046997389,7.142857142857142,94.45324881141046,0.48661800486618007,80.0,2.909090909090909,23.986486486486484,5.714285714285714,11.25,100.0,3.061224489795918
1.2,33.60655737704918,0.4444444444444444,14.076246334310852,4.545454545454546,92.4914675767918,0.21321961620469082,81.45695364238411,2.7896995708154506,25.757575757575758,2.2222222222222223,15.584415584415584,100.0,2.8846153846153846
0.7117437722419928,28.205128205128204,1.083032490974729,14.730878186968837,9.090909090909092,93.85665529010238,0.0,77.77777777777779,1.8145161290322582,23.076923076923077,1.8181818181818181,13.432835820895523,100.0,1.9607843137254901
1.083032490974729,26.146788990825687,1.5686274509803921,11.25,10.416666666666668,93.02325581395348,0.24449877750611246,76.12903225806451,3.263403263403263,25.475285171102662,1.7543859649122806,11.842105263157894,83.33333333333334,2.1505376344086025
0.6734006734006733,32.126696832579185,0.9216589861751152,12.16931216931217,5.263157894736842,93.53146853146853,0.6302521008403361,82.06896551724138,2.4390243902439024,23.137254901960784,1.6,12.987012987012985,71.42857142857143,1.9607843137254901
1.107011070110701,32.35294117647059,0.0,12.362637362637363,8.333333333333332,94.2339373970346,0.5847953216374269,81.5068493150685,2.3856858846918487,23.300970873786408,4.545454545454546,11.11111111111111,66.66666666666666,3.7037037037037033
0.7575757575757576,34.831460674157306,1.171875,14.713896457765669,8.19672131147541,93.04084720121028,0.0,75.15923566878982,3.2653061224489797,23.75886524822695,2.5210084033613445,22.22222222222222,75.0,2.727272727272727
1.1363636363636365,29.577464788732392,1.1235955056179776,12.46684350132626,10.204081632653061,92.85714285714286,0.2564102564102564,74.35897435897436,3.076923076923077,25.0,2.6548672566371683,12.903225806451612,100.0,3.125
0.8403361344537815,29.385964912280706,0.8771929824561403,15.864022662889518,6.557377049180328,91.19850187265918,0.4750593824228029,87.5,3.6217303822937628,22.99651567944251,0.4149377593360996,14.285714285714285,75.0,2.083333333333333
1.0526315789473684,29.411764705882355,0.45871559633027525,14.3646408839779,9.25925925925926,93.01533219761498,0.47393364928909953,80.26315789473685,1.7204301075268817,27.906976744186046,0.5952380952380952,13.48314606741573,66.66666666666666,2.0408163265306123
0.9302325581395349,30.76923076923077,0.0,13.20754716981132,5.357142857142857,93.17773788150808,0.0,82.03125,2.9213483146067416,24.723247232472325,0.3875968992248062,14.942528735632186,100.0,2.941176470588235
1.1494252873563218,33.00970873786408,0.0,13.96011396011396,8.16326530612245,92.88537549407114,0.6593406593406593,76.77419354838709,3.455723542116631,23.92857142857143,0.38314176245210724,11.267605633802818,100.0,3.4482758620689653
1.0416666666666665,35.751295336787564,1.345291479820628,12.18836565096953,7.142857142857142,91.9931856899489,0.4576659038901602,78.52348993288591,2.8260869565217392,23.487544483985765,1.7964071856287425,13.333333333333334,100.0,2.7777777777777777
1.1494252873563218,28.947368421052634,0.7633587786259541,14.049586776859504,8.620689655172415,91.51515151515152,0.24630541871921183,78.03468208092485,3.3707865168539324,23.809523809523807,0.33333333333333337,12.643678160919542,75.0,2.3529411764705883
1.4018691588785046,41.45077720207254,0.7547169811320755,14.545454545454545,5.0,93.85113268608414,0.683371298405467,77.77777777777779,2.6859504132231407,24.125874125874127,1.1173184357541899,12.658227848101266,75.0,2.7522935779816518
1.214574898785425,29.86425339366516,0.8547008547008548,13.96011396011396,2.127659574468085,92.63157894736842,0.5249343832020997,76.55172413793103,2.3300970873786406,23.48993288590604,1.4492753623188406,9.58904109589041,50.0,2.803738317757009
1.2048192771084338,31.753554502369667,1.2396694214876034,11.89873417721519,7.142857142857142,93.91634980988593,0.7614213197969544,77.3972602739726,3.584229390681003,23.404255319148938,1.0869565217391304,16.901408450704224,80.0,1.2048192771084338
1.214574898785425,34.95145631067961,1.0638297872340425,15.426997245179063,7.5,91.95402298850574,0.48192771084337355,76.28205128205127,1.9305019305019304,23.232323232323232,2.5974025974025974,13.636363636363635,100.0,3.9603960396039604
0.8658008658008658,31.03448275862069,0.8733624454148471,12.32876712328767,5.263157894736842,92.15384615384615,0.20491803278688525,82.31292517006803,2.690582959641256,25.454545454545453,0.7518796992481203,11.25,85.71428571428571,2.197802197802198
0.8368200836820083,23.618090452261306,1.1904761904761905,15.300546448087433,5.714285714285714,91.76882661996497,0.423728813559322,73.33333333333333,2.7777777777777777,24.199288256227756,1.4563106796116505,15.384615384615385,100.0,2.898550724637681
1.1764705882352942,29.71698113207547,1.171875,14.882506527415144,6.172839506172839,91.68141592920354,0.6116207951070336,81.93548387096774,3.3707865168539324,23.655913978494624,0.7547169811320755,10.714285714285714,100.0,1.1111111111111112
1.477832512315271,30.327868852459016,0.3663003663003663,12.70718232044199,6.122448979591836,92.98892988929889,0.42462845010615713,79.48717948717949,2.4282560706401766,27.091633466135455,1.1811023622047243,11.940298507462686,50.0,1.3333333333333335
0.7662835249042145,36.72316384180791,0.8064516129032258,13.142857142857142,6.349206349206349,90.54290718038528,0.28653295128939826,79.09604519774011,1.991150442477876,22.591362126245848,0.7604562737642585,13.924050632911392,100.0,2.803738317757009
0.7874015748031495,31.521739130434785,0.8130081300813009,14.836795252225517,7.2727272727272725,93.38842975206612,0.0,77.24550898203593,3.2653061224489797,21.49837133550489,2.824858757062147,11.267605633802818,66.66666666666666,2.912621359223301
0.847457627118644,27.461139896373055,1.1320754716981132,11.508951406649617,8.16326530612245,93.64791288566244,0.5089058524173028,82.3943661971831,3.061224489795918,24.46043165467626,0.8583690987124464,12.941176470588237,100.0,3.296703296703297
1.36986301369863,32.9059829059829,0.0,11.647727272727272,5.769230769230769,93.52750809061489,0.8298755186721992,82.46753246753246,3.7848605577689245,24.817518248175183,0.9803921568627451,15.384615384615385,100.0,4.040404040404041
1.4563106796116505,31.506849315068493,0.7352941176470588,12.841530054644808,6.25,93.07958477508652,0.4694835680751174,81.76470588235294,3.2454361054766734,23.79310344827586,2.5,17.105263157894736,50.0,3.3333333333333335
1.2,34.66135458167331,1.023890784982935,15.028901734104046,9.25925925925926,95.09306260575296,0.25316455696202533,79.86111111111111,2.3605150214592276,23.826714801444044,1.4925373134328357,9.30232558139535,100.0,3.508771929824561
1.3100436681222707,31.11111111111111,0.4444444444444444,14.880952380952381,8.19672131147541,94.37689969604864,0.3976143141153081,73.28767123287672,2.5316455696202533,24.264705882352942,2.127659574468085,11.842105263157894,100.0,2.0
1.2552301255230125,31.03448275862069,0.0,12.332439678284182,4.166666666666666,93.29608938547486,0.4608294930875576,83.55263157894737,3.5164835164835164,26.136363636363637,0.7633587786259541,9.090909090909092,100.0,2.2988505747126435
0.8733624454148471,32.71028037383177,0.0,13.602015113350127,6.0,93.22033898305084,0.2617801047120419,81.98757763975155,3.420523138832998,22.108843537414966,2.898550724637681,10.0,100.0,1.834862385321101
0.7168458781362007,35.64356435643564,1.2396694214876034,11.827956989247312,7.142857142857142,93.81818181818183,0.26109660574412535,79.62962962962963,3.9525691699604746,21.768707482993197,1.932367149758454,14.634146341463413,100.0,1.2987012987012987
1.1111111111111112,33.33333333333333,0.8438818565400843,12.561576354679804,5.128205128205128,92.71186440677967,0.6666666666666667,83.44370860927152,2.674897119341564,25.735294117647058,3.225806451612903,17.142857142857142,80.0,2.0408163265306123
0.7462686567164178,31.223628691983123,0.6872852233676976,14.326647564469914,7.5,90.64327485380117,0.0,77.77777777777779,1.8329938900203666,22.59259259259259,0.9009009009009009,17.647058823529413,100.0,3.061224489795918
0.39215686274509803,33.649289099526065,0.8032128514056224,12.951807228915662,5.88235294117647,93.38345864661655,0.22779043280182232,82.5,2.4742268041237114,22.22222222222222,3.4482758620689653,15.492957746478872,40.0,1.7699115044247788
1.092896174863388,31.140350877192986,0.3236245954692557,11.86046511627907,7.6923076923076925,93.81107491856677,0.0,73.97260273972603,3.508771929824561,27.160493827160494,1.8691588785046727,13.157894736842104,100.0,1.3513513513513513
0.8097165991902834,35.37735849056604,0.8823529411764706,14.369501466275661,7.5,92.94670846394985,0.5361930294906166,76.66666666666667,3.0534351145038165,25.296442687747035,3.0303030303030303,15.625,100.0,2.5423728813559325
1.1111111111111112,26.88679245283019,0.4166666666666667,14.285714285714285,8.620689655172415,92.33333333333333,0.2617801047120419,72.97297297297297,2.515723270440252,23.722627737226276,1.2195121951219512,13.541666666666666,100.0,2.380952380952381
0.7782101167315175,30.541871921182267,1.3100436681222707,15.363128491620111,5.660377358490567,93.8622754491018,0.43478260869565216,79.22077922077922,2.736842105263158,26.81992337164751,3.4782608695652173,17.441860465116278,66.66666666666666,2.5
1.1450381679389312,28.07017543859649,0.38022813688212925,12.569832402234638,10.869565217391305,93.10344827586206,0.7556675062972292,77.70700636942675,1.7408123791102514,26.31578947368421,3.225806451612903,11.494252873563218,100.0,3.3333333333333335
1.1494252873563218,31.746031746031743,0.0,13.966480446927374,8.47457627118644,94.48529411764706,0.0,79.62962962962963,3.004291845493562,25.954198473282442,1.2295081967213115,9.75609756097561,100.0,1.3333333333333335
1.3157894736842104,35.348837209302324,0.0,13.559322033898304,11.363636363636363,92.66055045871559,0.25380710659898476,79.19463087248322,3.292181069958848,25.64102564102564,2.0618556701030926,17.28395061728395,75.0,4.123711340206185
1.1235955056179776,30.65326633165829,0.0,16.23931623931624,8.51063829787234,90.19963702359347,0.24096385542168677,79.04191616766467,3.010752688172043,23.333333333333332,0.7633587786259541,21.73913043478261,75.0,1.9417475728155338
1.0033444816053512,33.33333333333333,1.276595744680851,13.31521739130435,7.317073170731707,93.30065359477125,0.22522522522522523,81.70731707317073,2.8747433264887063,24.253731343283583,4.545454545454546,9.876543209876543,42.857142857142854,2.127659574468085
0.0,29.951690821256037,0.0,15.028901734104046,8.620689655172415,92.54658385093167,0.4291845493562232,82.05128205128204,2.4667931688804554,24.53531598513011,5.825242718446602,19.230769230769234,100.0,3.75
1.3392857142857142,33.5,2.262443438914027,13.09192200557103,9.25925925925926,91.29172714078373,0.0,76.82119205298014,2.1696252465483234,26.744186046511626,2.7777777777777777,15.384615384615385,50.0,1.2048192771084338
0.9569377990430622,33.6734693877551,0.37735849056603776,16.528925619834713,8.19672131147541,93.75975039001561,0.7009345794392523,73.86363636363636,3.4000000000000004,23.75886524822695,3.389830508474576,17.857142857142858,100.0,2.912621359223301
0.4807692307692308,30.434782608695656,0.37593984962406013,15.447154471544716,10.0,93.01948051948052,0.0,76.07361963190185,2.9350104821802936,25.78125,2.013422818791946,16.666666666666664,100.0,3.0
0.7092198581560284,26.540284360189574,1.7094017094017095,10.050251256281408,5.88235294117647,93.77049180327869,0.21598272138228944,78.2051282051282,3.5343035343035343,23.843416370106763,5.333333333333334,12.359550561797752,100.0,1.4705882352941175
1.3043478260869565,32.850241545893724,0.30959752321981426,10.362694300518134,6.451612903225806,92.92196007259528,0.2890173410404624,77.12418300653596,2.1999999999999997,23.875432525951556,1.0471204188481675,12.195121951219512,83.33333333333334,1.3157894736842104
0.7843137254901961,34.02061855670103,0.4016064257028112,12.25,5.405405405405405,92.12218649517685,0.45558086560364464,76.47058823529412,2.6726057906458798,26.037735849056602,1.257861635220126,13.580246913580247,100.0,2.1052631578947367
1.2875536480686696,29.292929292929294,0.43103448275862066,13.709677419354838,7.142857142857142,92.63913824057451,0.43668122270742354,77.93103448275862,2.9723991507431,25.28301886792453,1.6736401673640167,15.277777777777779,100.0,2.9702970297029703
1.171875,34.17085427135678,0.425531914893617,13.172043010752688,7.5,92.71186440677967,0.4514672686230248,77.77777777777779,3.2882011605415857,25.18248175182482,2.34375,8.433734939759036,100.0,1.834862385321101
0.9433962264150944,31.140350877192986,0.819672131147541,14.035087719298245,9.433962264150944,92.84525790349417,0.6912442396313364,77.07006369426752,2.642276422764228,24.054982817869416,2.7027027027027026,20.3125,100.0,1.3513513513513513
0.7662835249042145,30.275229357798167,1.530612244897959,13.445378151260504,6.521739130434782,93.3933933933934,0.21551724137931033,78.88198757763976,2.869757174392936,26.122448979591837,3.546099290780142,13.513513513513514,25.0,2.586206896551724
1.1194029850746268,35.483870967741936,0.7843137254901961,15.404699738903393,6.0,91.6988416988417,0.23923444976076555,75.93984962406014,2.957486136783734,25.2,0.4405286343612335,12.087912087912088,50.0,2.7027027027027026
0.7604562737642585,37.362637362637365,1.646090534979424,13.672922252010725,6.382978723404255,93.13725490196079,0.23364485981308408,77.64705882352942,3.088803088803089,23.154362416107382,3.225806451612903,10.81081081081081,100.0,2.0408163265306123
1.083032490974729,31.372549019607842,0.4716981132075472,13.910761154855644,5.263157894736842,91.62112932604735,0.26666666666666666,84.35374149659864,2.4489795918367347,23.63013698630137,0.881057268722467,12.195121951219512,50.0,2.857142857142857
1.25,34.12322274881517,0.0,15.57632398753894,9.090909090909092,92.7689594356261,0.25,77.10843373493977,3.090507726269316,22.45614035087719,1.5873015873015872,17.80821917808219,100.0,3.8834951456310676
1.2244897959183674,35.32338308457712,1.1811023622047243,12.051282051282051,4.838709677419355,93.03482587064677,0.24875621890547264,83.6734693877551,2.4193548387096775,22.569444444444446,1.574803149606299,11.363636363636363,50.0,2.1052631578947367
1.1235955056179776,33.177570093457945,0.8264462809917356,15.03957783641161,9.090909090909092,92.45283018867924,0.5865102639296188,79.41176470588235,2.312138728323699,23.958333333333336,2.4691358024691357,17.24137931034483,50.0,2.1505376344086025
1.3215859030837005,35.54502369668246,1.0033444816053512,12.23404255319149,6.666666666666667,93.80530973451327,0.8310249307479225,82.85714285714286,4.11522633744856,21.806853582554517,2.1052631578947367,19.54022988505747,75.0,3.3333333333333335
1.0869565217391304,32.467532467532465,0.7575757575757576,15.718157181571815,9.75609756097561,93.7888198757764,0.228310502283105,81.63265306122449,2.6726057906458798,23.776223776223777,4.285714285714286,21.25,75.0,2.912621359223301
0.823045267489712,33.80281690140845,0.9009009009009009,11.78082191780822,6.41025641025641,92.27129337539432,0.0,79.5774647887324,3.386454183266932,22.149837133550488,4.132231404958678,12.345679012345679,100.0,2.9850746268656714
0.851063829787234,28.07017543859649,0.4975124378109453,13.316582914572864,7.017543859649122,88.8307155322862,0.22026431718061676,72.67080745341616,1.984126984126984,29.583333333333332,0.43478260869565216,16.867469879518072,60.0,2.2222222222222223
1.098901098901099,33.63636363636363,1.3888888888888888,15.460526315789474,5.88235294117647,93.9297124600639,0.0,78.43137254901961,2.834008097165992,23.75886524822695,2.5,16.666666666666664,83.33333333333334,3.260869565217391
0.6389776357827476,31.443298969072163,0.37174721189591076,14.492753623188406,8.928571428571429,93.27073552425665,0.0,80.0,2.386117136659436,24.27536231884058,5.376344086021505,19.402985074626866,75.0,2.9702970297029703
0.9259259259259258,35.714285714285715,2.4875621890547266,13.88888888888889,7.246376811594203,94.46564885496184,0.22522522522522523,75.9493670886076,3.225806451612903,24.91103202846975,0.29239766081871343,15.0,62.5,1.8867924528301887
1.0869565217391304,36.18090452261307,0.9569377990430622,13.089005235602095,5.0,93.88560157790927,0.2403846153846154,81.04575163398692,2.75049115913556,22.475570032573287,0.9615384615384616,18.666666666666668,25.0,3.0927835051546393
0.9803921568627451,31.527093596059114,0.49261083743842365,13.600000000000001,7.4074074074074066,94.40242057488653,0.0,79.45205479452055,2.2774327122153206,24.187725631768952,5.714285714285714,17.045454545454543,57.14285714285714,3.1914893617021276
0.9259259259259258,34.57943925233645,0.390625,13.812154696132598,5.555555555555555,92.74924471299094,0.43956043956043955,84.35374149659864,2.0737327188940093,25.384615384615383,2.366863905325444,12.0,66.66666666666666,3.6363636363636362
1.25,31.372549019607842,0.0,13.559322033898304,8.333333333333332,93.72262773722628,0.5277044854881267,74.35897435897436,2.1653543307086616,22.516556291390728,4.3478260869565215,17.80821917808219,33.33333333333333,2.9702970297029703
1.153846153846154,31.155778894472363,0.0,13.623978201634879,10.256410256410255,92.38754325259517,0.9569377990430622,79.86577181208054,2.8634361233480177,22.40802675585284,0.5,11.363636363636363,100.0,3.061224489795918
1.1111111111111112,27.173913043478258,0.43668122270742354,13.78299120234604,5.88235294117647,91.35135135135135,0.45045045045045046,81.875,3.272727272727273,22.02797202797203,1.2422360248447204,17.72151898734177,100.0,3.3707865168539324
1.1235955056179776,28.078817733990146,0.4,14.40443213296399,6.521739130434782,92.51439539347409,0.29940119760479045,83.01886792452831,2.083333333333333,22.535211267605636,0.2717391304347826,11.538461538461538,100.0,3.1914893617021276
0.7246376811594203,34.31372549019608,0.0,11.195928753180661,6.976744186046512,94.21221864951768,0.0,80.51948051948052,3.125,23.943661971830984,3.488372093023256,8.433734939759036,100.0,4.054054054054054
1.083032490974729,31.944444444444443,0.3424657534246575,15.51155115511551,8.0,93.01075268817203,0.3144654088050315,78.94736842105263,2.3404255319148937,22.653721682847898,0.7547169811320755,25.333333333333336,100.0,2.631578947368421
1.2875536480686696,34.12322274881517,0.4,13.314447592067987,10.0,92.15328467153284,0.48192771084337355,79.87012987012987,2.2222222222222223,24.907063197026023,1.8779342723004695,17.20430107526882,36.36363636363637,2.803738317757009
1.25,31.88405797101449,0.3968253968253968,15.485564304461944,7.2727272727272725,92.58010118043845,0.20491803278688525,81.81818181818183,3.532008830022075,27.500000000000004,1.1363636363636365,10.38961038961039,75.0,3.6585365853658534
0.7936507936507936,30.472103004291846,0.7352941176470588,13.27683615819209,8.16326530612245,94.76831091180867,0.24630541871921183,80.74534161490683,1.3303769401330376,23.954372623574145,2.459016393442623,13.580246913580247,100.0,3.5294117647058822
0.8583690987124464,30.70539419087137,1.2658227848101267,12.771739130434783,5.660377358490567,93.69676320272572,0.0,79.8780487804878,2.3856858846918487,25.830258302583026,0.7575757575757576,13.953488372093023,66.66666666666666,4.6875
1.0752688172043012,32.06751054852321,0.7299270072992701,16.187989556135772,8.108108108108109,94.44444444444444,0.26109660574412535,82.38993710691824,3.50109409190372,24.285714285714285,3.6764705882352944,19.696969696969695,100.0,1.7391304347826086
0.7874015748031495,33.33333333333333,0.7194244604316548,15.269461077844312,9.803921568627452,93.72197309417041,0.46403712296983757,81.57894736842105,2.232142857142857,23.52941176470588,5.208333333333334,13.698630136986301,100.0,2.8846153846153846
1.1811023622047243,29.767441860465116,0.7462686567164178,14.942528735632186,6.25,92.7652733118971,0.9259259259259258,79.8507462686567,1.9267822736030826,24.074074074074073,2.5423728813559325,12.048192771084338,66.66666666666666,3.4090909090909087
1.1904761904761905,33.649289099526065,0.7220216606498195,15.206185567010309,8.16326530612245,92.56055363321799,0.7092198581560284,77.14285714285715,3.4693877551020407,24.187725631768952,2.0408163265306123,18.181818181818183,100.0,2.2222222222222223
0.8771929824561403,28.061224489795915,0.423728813559322,15.123456790123457,5.769230769230769,92.3076923076923,0.2079002079002079,80.0,3.065134099616858,25.37878787878788,1.8518518518518516,15.053763440860216,100.0,2.1505376344086025
0.8403361344537815,31.843575418994412,0.0,14.647887323943662,7.2727272727272725,93.40836012861736,0.4750593824228029,75.31645569620254,2.8119507908611596,23.46938775510204,4.807692307692308,13.698630136986301,100.0,2.7522935779816518
0.9771986970684038,34.285714285714285,0.8583690987124464,13.895781637717123,6.25,94.42567567567568,0.5714285714285714,78.66666666666666,4.085603112840467,23.859649122807017,3.1746031746031744,13.333333333333334,100.0,1.834862385321101
1.4563106796116505,28.837209302325583,0.7490636704119851,13.079019073569482,4.444444444444445,93.02325581395348,0.7797270955165692,76.92307692307693,2.977667493796526,27.54237288135593,3.4782608695652173,17.72151898734177,80.0,2.127659574468085
1.4018691588785046,31.21951219512195,0.0,12.408759124087592,6.382978723404255,92.64957264957265,0.6864988558352403,80.95238095238095,3.1578947368421053,26.33587786259542,1.06951871657754,10.0,50.0,2.083333333333333
1.36986301369863,32.61802575107296,0.7662835249042145,13.142857142857142,5.084745762711865,92.97385620915033,0.47732696897374705,77.5,2.301255230125523,24.427480916030532,1.25,14.130434782608695,60.0,3.260869565217391
0.8658008658008658,33.014354066985646,0.0,11.658031088082902,6.8181818181818175,93.32191780821918,0.23364485981308408,78.76712328767124,2.4866785079928952,23.958333333333336,3.418803418803419,11.76470588235294,50.0,1.282051282051282
0.7194244604316548,29.166666666666668,0.398406374501992,13.647642679900745,6.666666666666667,93.60146252285192,0.0,84.76821192052981,3.1914893617021276,24.719101123595504,2.450980392156863,13.48314606741573,66.66666666666666,4.651162790697675
0.8733624454148471,28.57142857142857,2.1645021645021645,11.653116531165312,6.8181818181818175,93.48591549295774,0.3787878787878788,83.22580645161291,3.2323232323232323,24.363636363636363,3.418803418803419,9.473684210526317,100.0,3.3333333333333335
0.7092198581560284,32.11009174311927,0.7042253521126761,15.29745042492918,5.0,92.24422442244224,0.48543689320388345,82.14285714285714,2.2132796780684103,24.91349480968858,4.23728813559322,19.767441860465116,100.0,4.054054054054054
0.8368200836820083,32.417582417582416,1.6194331983805668,12.568306010928962,6.25,93.64548494983278,0.6578947368421052,83.7037037037037,2.60707635009311,25.609756097560975,4.697986577181208,10.975609756097562,100.0,2.6548672566371683
1.079136690647482,29.22374429223744,0.823045267489712,12.598425196850393,6.521739130434782,89.87993138936535,0.0,80.0,2.4663677130044843,22.611464968152866,0.9174311926605505,17.333333333333336,100.0,3.7037037037037033
1.183431952662722,31.05022831050228,0.0,12.532637075718014,9.090909090909092,93.97810218978103,0.45351473922902497,76.31578947368422,2.3346303501945527,25.64102564102564,1.6853932584269662,14.772727272727273,60.0,1.694915254237288
1.0452961672473868,30.136986301369863,0.4484304932735426,13.192612137203167,7.6923076923076925,92.64,0.2398081534772182,78.57142857142857,2.0964360587002098,22.972972972972975,4.166666666666666,10.526315789473683,,3.3333333333333335
0.5025125628140703,33.175355450236964,0.3676470588235294,14.550264550264549,7.6923076923076925,92.84525790349417,0.23923444976076555,74.17218543046357,3.1423290203327174,22.259136212624583,4.62962962962963,13.924050632911392,100.0,2.0202020202020203
0.851063829787234,35.714285714285715,0.7326007326007326,13.513513513513514,4.918032786885246,91.02564102564102,0.0,72.1590909090909,2.5096525096525095,22.55892255892256,1.2552301255230125,20.54794520547945,42.857142857142854,1.2195121951219512
0.8064516129032258,33.80281690140845,1.2448132780082988,11.170212765957446,7.8125,95.09954058192956,0.0,72.67080745341616,2.553191489361702,24.149659863945576,4.0,16.049382716049383,100.0,3.7037037037037033
0.7326007326007326,33.33333333333333,1.098901098901099,14.02439024390244,5.660377358490567,93.18568994889267,0.7194244604316548,81.93548387096774,2.7944111776447107,22.772277227722775,2.5423728813559325,13.978494623655912,57.14285714285714,2.4691358024691357
0.43668122270742354,30.88235294117647,1.0582010582010581,13.720316622691293,6.493506493506493,90.68219633943427,0.4434589800443459,82.43243243243244,3.2,23.88663967611336,1.5384615384615385,17.391304347826086,100.0,2.7522935779816518
1.2295081967213115,30.049261083743843,0.4405286343612335,12.76595744680851,7.142857142857142,94.18238993710692,0.2066115702479339,79.08496732026144,3.262955854126679,26.5625,3.7037037037037033,14.473684210526317,100.0,2.2988505747126435
0.78125,36.92307692307693,1.4336917562724014,13.020833333333334,4.25531914893617,93.0,0.7481296758104738,82.11920529801324,3.3472803347280333,22.0,3.2520325203252036,16.43835616438356,100.0,2.6785714285714284
0.411522633744856,34.61538461538461,0.7462686567164178,13.142857142857142,3.9215686274509802,93.60374414976599,0.4796163069544364,86.8421052631579,2.9473684210526314,23.693379790940767,1.6129032258064515,18.39080459770115,100.0,3.125
0.851063829787234,34.44976076555024,0.9090909090909091,14.929577464788732,4.081632653061225,93.15068493150685,0.6493506493506493,78.2051282051282,2.7722772277227725,26.848249027237355,0.5181347150259068,14.084507042253522,100.0,3.8095238095238098
0.8368200836820083,32.69230769230769,0.35842293906810035,12.737127371273713,4.761904761904762,93.28493647912886,0.9478672985781991,85.92592592592592,3.870967741935484,20.875420875420875,0.49261083743842365,15.909090909090908,100.0,2.941176470588235
1.8072289156626504,26.442307692307693,0.7490636704119851,12.600536193029491,8.771929824561402,91.45907473309609,0.683371298405467,81.25,2.904564315352697,24.2320819112628,0.5291005291005291,12.82051282051282,75.0,3.225806451612903
0.7662835249042145,29.55665024630542,2.272727272727273,14.690721649484537,6.122448979591836,92.37749546279493,0.2631578947368421,75.67567567567568,2.2675736961451247,23.890784982935152,1.2448132780082988,10.666666666666668,75.0,0.9615384615384616
0.8,37.745098039215684,0.398406374501992,13.192612137203167,6.122448979591836,92.5925925925926,0.25316455696202533,83.44370860927152,3.225806451612903,23.214285714285715,0.3703703703703704,12.5,60.0,3.389830508474576
1.2244897959183674,30.102040816326532,1.6,13.88888888888889,8.19672131147541,93.0909090909091,0.45558086560364464,79.60526315789474,2.2494887525562373,23.426573426573427,0.9523809523809524,10.666666666666668,100.0,4.545454545454546
0.8064516129032258,33.65384615384615,1.0714285714285714,16.619718309859156,6.153846153846154,93.59756097560977,0.0,72.83236994219652,1.7429193899782136,22.939068100358423,4.395604395604396,13.953488372093023,33.33333333333333,1.1627906976744187
0.4048582995951417,36.26373626373626,0.38461538461538464,14.180929095354522,5.357142857142857,92.29287090558766,0.0,78.47222222222221,2.834008097165992,20.113314447592067,1.5463917525773196,10.294117647058822,83.33333333333334,3.260869565217391
1.1320754716981132,29.04761904761905,0.9803921568627451,10.29810298102981,7.4074074074074066,93.28743545611016,0.2785515320334262,81.64556962025317,2.880658436213992,21.895424836601308,2.631578947368421,13.978494623655912,80.0,4.166666666666666
1.1152416356877324,29.27927927927928,0.9090909090909091,12.647058823529411,7.6923076923076925,92.96407185628742,0.228310502283105,82.58064516129032,2.9469548133595285,23.64864864864865,4.6875,17.24137931034483,75.0,3.8461538461538463
1.171875,28.333333333333332,1.083032490974729,12.600536193029491,8.0,93.00911854103343,0.228310502283105,75.15923566878982,3.056768558951965,22.972972972972975,3.79746835443038,16.0,100.0,2.9702970297029703
0.8264462809917356,29.665071770334926,0.41841004184100417,11.444141689373296,7.2727272727272725,93.24817518248175,0.25252525252525254,82.43243243243244,3.0501089324618738,23.875432525951556,1.1235955056179776,16.216216216216218,75.0,3.8095238095238098
0.7692307692307693,32.142857142857146,0.43668122270742354,12.835820895522387,9.30232558139535,95.22342064714945,0.24449877750611246,81.36645962732919,2.272727272727273,23.076923076923077,2.197802197802198,13.20754716981132,75.0,3.7037037037037033
0.4098360655737705,32.35294117647059,0.411522633744856,12.11340206185567,8.064516129032258,93.26424870466322,0.2232142857142857,82.31292517006803,3.508771929824561,22.516556291390728,1.744186046511628,17.333333333333336,100.0,2.5316455696202533
1.1904761904761905,30.601092896174865,0.0,14.285714285714285,6.0,92.29390681003584,0.0,80.74534161490683,2.4299065420560746,26.640926640926644,1.89873417721519,4.477611940298507,80.0,2.127659574468085
1.083032490974729,28.57142857142857,1.593625498007968,12.921348314606742,7.8431372549019605,91.26984126984127,0.25,79.87012987012987,2.127659574468085,20.82018927444795,3.614457831325301,13.829787234042554,75.0,4.615384615384616
0.425531914893617,26.0,0.4098360655737705,11.11111111111111,3.8461538461538463,92.93563579277865,0.0,76.19047619047619,2.6970954356846475,23.202614379084967,3.149606299212598,15.0,100.0,2.8301886792452833
0.8888888888888888,34.418604651162795,0.398406374501992,15.051020408163266,5.172413793103448,91.83006535947712,0.4807692307692308,77.77777777777779,2.375296912114014,23.56902356902357,1.2195121951219512,17.391304347826086,83.33333333333334,3.669724770642202
1.1235955056179776,29.84293193717277,0.8620689655172413,14.64088397790055,9.25925925925926,91.42394822006472,0.0,80.8641975308642,1.6771488469601679,24.62686567164179,1.948051948051948,13.253012048192772,100.0,3.9603960396039604
1.214574898785425,33.33333333333333,0.3546099290780142,14.583333333333334,5.0,92.98245614035088,0.547945205479452,71.60493827160494,2.7196652719665275,22.0,0.8733624454148471,12.345679012345679,100.0,2.083333333333333
1.0752688172043012,30.23255813953488,1.2345679012345678,13.066666666666665,6.666666666666667,90.76086956521739,0.2770083102493075,75.5813953488372,2.536997885835095,22.330097087378643,0.4629629629629629,16.666666666666664,60.0,3.79746835443038
1.4018691588785046,31.98198198198198,0.3184713375796179,13.333333333333334,8.771929824561402,93.47133757961782,0.5263157894736842,80.60606060606061,3.6659877800407332,25.769230769230766,3.571428571428571,13.48314606741573,100.0,3.1914893617021276
1.214574898785425,27.586206896551722,1.3824884792626728,13.461538461538462,6.382978723404255,92.53996447602132,0.2242152466367713,79.75460122699386,3.1189083820662766,24.137931034482758,2.5974025974025974,10.95890410958904,60.0,3.076923076923077
1.056338028169014,32.12435233160622,0.8547008547008548,14.555256064690028,5.660377358490567,94.12650602409639,0.4405286343612335,78.39506172839506,3.160270880361174,25.287356321839084,1.8867924528301887,17.24137931034483,75.0,3.488372093023256
0.8438818565400843,32.6530612244898,0.39215686274509803,15.384615384615385,7.8431372549019605,92.46323529411765,0.4750593824228029,74.32432432432432,3.6363636363636362,22.372881355932204,1.1764705882352942,11.428571428571429,100.0,2.4096385542168677
1.2345679012345678,32.093023255813954,0.35211267605633806,14.676616915422885,9.30232558139535,94.41340782122904,0.0,80.26315789473685,3.4482758620689653,22.295081967213115,1.9867549668874174,11.842105263157894,33.33333333333333,2.7027027027027026
0.8,31.9047619047619,0.9090909090909091,15.113350125944585,7.6923076923076925,94.64285714285714,0.0,80.625,2.6373626373626373,23.333333333333332,1.3333333333333335,15.277777777777779,100.0,2.941176470588235
1.1194029850746268,24.88262910798122,1.3761467889908259,13.924050632911392,8.333333333333332,91.62479061976549,0.5,78.10650887573965,2.6506024096385543,23.157894736842106,0.4273504273504274,14.473684210526317,100.0,2.4691358024691357
0.8130081300813009,27.979274611398964,0.0,13.662790697674417,5.172413793103448,93.15068493150685,0.0,78.66666666666666,3.112033195020747,21.794871794871796,3.1055900621118013,11.494252873563218,100.0,4.761904761904762
1.2605042016806722,29.613733905579398,0.6993006993006993,12.222222222222221,6.0,92.76729559748428,0.27472527472527475,79.14110429447852,2.8688524590163933,22.635135135135133,3.4782608695652173,16.091954022988507,71.42857142857143,1.2658227848101267
1.0526315789473684,34.21052631578947,1.3333333333333335,13.953488372093023,7.2727272727272725,92.3076923076923,0.0,73.54838709677419,2.3166023166023164,22.569444444444446,2.1052631578947367,9.722222222222223,100.0,2.0202020202020203
0.8163265306122449,37.254901960784316,0.6920415224913495,15.29745042492918,6.122448979591836,92.5476603119584,0.0,77.30061349693251,3.177570093457944,25.806451612903224,2.857142857142857,14.814814814814813,71.42857142857143,1.0869565217391304
0.9174311926605505,40.19607843137255,1.276595744680851,15.363128491620111,7.4074074074074066,93.10344827586206,0.0,80.4054054054054,3.0927835051546393,24.80916030534351,3.7037037037037033,13.513513513513514,100.0,2.7027027027027026
0.7936507936507936,30.952380952380953,0.7874015748031495,13.550135501355012,7.4074074074074066,93.59375,0.4273504273504274,77.84431137724552,2.8282828282828283,26.446280991735538,2.631578947368421,16.417910447761194,100.0,2.8846153846153846
0.8097165991902834,30.660377358490564,0.3703703703703704,15.568862275449103,12.195121951219512,91.89686924493554,0.25510204081632654,76.51006711409396,2.839756592292089,23.02405498281787,1.2396694214876034,14.864864864864865,66.66666666666666,3.6036036036036037
0.8,28.855721393034827,0.904977375565611,14.555256064690028,5.263157894736842,93.94904458598727,1.1655011655011656,86.07594936708861,2.2429906542056073,24.719101123595504,2.0408163265306123,14.457831325301203,80.0,4.040404040404041
0.7936507936507936,31.88405797101449,1.2448132780082988,12.676056338028168,5.660377358490567,95.02262443438913,0.42194092827004215,72.78481012658227,2.9723991507431,23.91304347826087,0.0,15.555555555555555,100.0,3.0927835051546393
1.094890510948905,30.493273542600896,1.1363636363636365,11.928934010152284,7.2727272727272725,91.92660550458716,0.24630541871921183,75.32467532467533,3.397027600849257,24.074074074074073,1.6304347826086956,15.730337078651685,100.0,2.8169014084507045
0.9090909090909091,34.403669724770644,0.8064516129032258,13.387978142076504,9.25925925925926,93.82113821138212,0.5154639175257731,80.12820512820514,1.6632016632016633,24.528301886792452,1.0256410256410255,16.666666666666664,80.0,3.5398230088495577
1.1627906976744187,36.92307692307693,0.3508771929824561,15.675675675675677,6.557377049180328,92.88389513108615,0.2652519893899204,82.57575757575758,2.4774774774774775,23.674911660777383,0.7272727272727273,13.846153846153847,100.0,1.680672268907563
1.1152416356877324,31.8407960199005,0.7194244604316548,12.195121951219512,8.47457627118644,95.08928571428571,0.8695652173913043,80.89171974522293,2.9748283752860414,22.570532915360502,4.123711340206185,14.130434782608695,100.0,2.912621359223301
1.1194029850746268,37.91208791208791,0.851063829787234,13.157894736842104,7.2727272727272725,94.04761904761905,0.4975124378109453,75.77639751552795,2.666666666666667,24.555160142348754,1.7543859649122806,18.29268292682927,80.0,1.0638297872340425
0.78125,31.770833333333332,0.398406374501992,12.931034482758621,5.454545454545454,93.66715758468335,0.2352941176470588,83.97435897435898,3.4562211981566824,21.812080536912752,1.8867924528301887,10.144927536231885,100.0,3.8461538461538463
1.094890510948905,23.555555555555554,0.411522633744856,13.812154696132598,4.651162790697675,91.48629148629148,0.2398081534772182,80.0,2.3094688221709005,21.35593220338983,3.75,7.792207792207792,100.0,3.0927835051546393
0.7220216606498195,31.65137614678899,0.8130081300813009,11.235955056179774,5.454545454545454,94.09722222222221,0.23752969121140144,76.71232876712328,2.1868787276341948,25.63176895306859,1.9607843137254901,14.814814814814813,83.33333333333334,4.597701149425287
1.0526315789473684,30.434782608695656,0.7168458781362007,14.016172506738545,7.142857142857142,93.59605911330048,0.25252525252525254,80.55555555555556,3.131991051454139,25.08833922261484,1.9230769230769231,16.304347826086957,85.71428571428571,2.857142857142857
0.8658008658008658,36.75675675675676,0.35714285714285715,16.893732970027248,7.317073170731707,94.46107784431138,0.0,76.0,3.7199124726477026,21.630094043887148,3.614457831325301,17.94871794871795,42.857142857142854,2.5
1.1450381679389312,36.36363636363637,1.3574660633484164,11.825192802056556,4.545454545454546,93.03571428571429,0.23696682464454977,77.55102040816327,2.850877192982456,23.31081081081081,1.0256410256410255,13.953488372093023,75.0,2.247191011235955
1.107011070110701,32.057416267942585,0.7462686567164178,15.240641711229946,8.620689655172415,92.85714285714286,0.5,78.98089171974523,2.6970954356846475,26.217228464419474,0.9950248756218906,10.9375,60.0,2.631578947368421
1.2,29.850746268656714,1.282051282051282,12.5,9.433962264150944,91.94499017681729,0.24390243902439024,79.62962962962963,3.2751091703056767,25.468164794007492,0.3558718861209964,11.29032258064516,75.0,1.9417475728155338
1.1627906976744187,31.862745098039213,0.425531914893617,14.945652173913043,2.7027027027027026,93.8366718027735,0.425531914893617,84.78260869565217,2.294455066921606,25.555555555555554,5.405405405405405,10.256410256410255,100.0,2.1052631578947367
1.153846153846154,28.64864864864865,0.881057268722467,16.237113402061855,9.090909090909092,90.36918138041734,0.22075055187637968,79.3103448275862,3.551401869158879,25.461254612546124,2.197802197802198,16.901408450704224,100.0,3.1578947368421053
0.8097165991902834,34.97536945812808,0.40650406504065045,12.531969309462914,9.090909090909092,93.65942028985508,0.21691973969631237,79.375,2.6515151515151514,24.313725490196077,3.546099290780142,12.345679012345679,36.36363636363637,2.4390243902439024
0.9389671361502347,29.23728813559322,0.3703703703703704,13.563829787234042,8.16326530612245,93.32247557003257,0.43668122270742354,79.33333333333333,2.5806451612903225,28.063241106719367,2.5974025974025974,12.658227848101266,80.0,2.5
0.7407407407407408,35.78431372549019,1.2658227848101267,15.405405405405407,6.382978723404255,92.81045751633987,0.48192771084337355,75.92592592592592,2.0793950850661624,22.22222222222222,3.5294117647058822,15.909090909090908,33.33333333333333,1.3513513513513513
0.8547008547008548,35.68075117370892,1.3513513513513513,15.745856353591158,5.555555555555555,93.80952380952381,0.641025641025641,71.875,2.569593147751606,24.907063197026023,1.4084507042253522,22.535211267605636,28.57142857142857,2.912621359223301
1.1811023622047243,30.697674418604652,0.7117437722419928,12.876712328767123,5.88235294117647,95.1178451178451,0.24330900243309003,79.86577181208054,3.1192660550458715,24.475524475524477,2.5974025974025974,12.790697674418606,100.0,3.571428571428571
0.4807692307692308,30.0,1.1029411764705883,14.603174603174605,4.651162790697675,93.25259515570934,0.2136752136752137,75.44910179640718,2.783300198807157,23.711340206185564,0.5376344086021506,13.580246913580247,100.0,2.2988505747126435
0.9615384615384616,31.797235023041477,0.36496350364963503,12.254901960784313,7.2727272727272725,92.1847246891652,0.6681514476614699,79.05405405405406,2.857142857142857,23.846153846153847,1.744186046511628,15.476190476190476,100.0,2.8169014084507045
1.276595744680851,35.82887700534759,0.819672131147541,12.694300518134716,6.25,92.73356401384083,0.24390243902439024,76.64670658682635,2.696629213483146,25.868725868725868,1.4598540145985401,15.492957746478872,100.0,2.1052631578947367
0.8695652173913043,33.33333333333333,0.7194244604316548,15.34526854219949,3.8461538461538463,93.48659003831418,0.0,78.98550724637681,2.976190476190476,24.398625429553263,1.0638297872340425,19.298245614035086,83.33333333333334,2.0
0.8733624454148471,36.09756097560975,1.0714285714285714,14.854111405835543,7.4074074074074066,93.26347305389223,0.4629629629629629,82.87671232876713,2.3157894736842106,23.92857142857143,4.761904761904762,16.049382716049383,100.0,3.4090909090909087
0.8695652173913043,32.5242718446602,1.5686274509803921,13.054187192118228,6.25,92.65625,0.6976744186046512,77.85234899328859,2.1825396825396823,24.907063197026023,2.2222222222222223,16.666666666666664,66.66666666666666,1.098901098901099
1.2345679012345678,34.72222222222222,1.3157894736842104,12.70718232044199,9.25925925925926,93.96551724137932,0.0,79.60526315789474,2.846299810246679,24.54212454212454,3.0534351145038165,22.058823529411764,80.0,2.2222222222222223
0.78125,27.17948717948718,0.41841004184100417,15.463917525773196,11.363636363636363,93.80952380952381,0.22624434389140274,76.78571428571429,3.5196687370600417,24.0,4.545454545454546,11.11111111111111,80.0,2.8846153846153846
0.8163265306122449,34.054054054054056,0.9615384615384616,13.783783783783784,8.19672131147541,93.4920634920635,0.6593406593406593,82.11920529801324,2.4242424242424243,25.36231884057971,2.7027027027027026,15.294117647058824,100.0,2.197802197802198
1.1673151750972763,33.33333333333333,0.36496350364963503,14.40443213296399,9.090909090909092,94.1923774954628,0.44742729306487694,76.81159420289855,2.840909090909091,25.28301886792453,3.3112582781456954,19.11764705882353,66.66666666666666,3.7735849056603774
1.36986301369863,38.20754716981132,0.7220216606498195,15.384615384615385,3.7735849056603774,93.84615384615384,0.516795865633075,73.88535031847134,2.5145067698259185,22.54901960784314,2.7027027027027026,14.666666666666666,71.42857142857143,3.1578947368421053
0.8658008658008658,30.845771144278604,0.0,13.402061855670103,8.064516129032258,93.75,0.0,78.26086956521739,3.111111111111111,21.864951768488748,2.307692307692308,18.055555555555554,100.0,1.1235955056179776
1.0273972602739725,35.26570048309179,1.6736401673640167,10.75,4.0,92.76094276094277,0.25125628140703515,82.63888888888889,3.1315240083507305,21.35593220338983,3.205128205128205,12.5,100.0,1.8181818181818181
1.3100436681222707,30.34825870646766,0.37174721189591076,14.766839378238341,7.547169811320755,94.13533834586467,0.0,81.57894736842105,2.696629213483146,25.680933852140075,3.8095238095238098,9.375,100.0,3.8095238095238098
1.3761467889908259,29.68036529680365,0.3424657534246575,12.1301775147929,8.19672131147541,93.35604770017035,0.7075471698113208,75.79617834394905,2.079002079002079,23.154362416107382,2.027027027027027,12.658227848101266,100.0,4.166666666666666
0.6557377049180327,32.35294117647059,0.796812749003984,12.5,8.51063829787234,94.23423423423424,0.2506265664160401,81.41025641025641,2.8846153846153846,22.02797202797203,1.5384615384615385,18.421052631578945,60.0,2.857142857142857
0.8163265306122449,32.1608040201005,0.0,14.136125654450263,4.444444444444445,96.22926093514329,0.4694835680751174,76.10062893081762,2.9723991507431,23.157894736842106,3.7037037037037033,14.473684210526317,80.0,2.631578947368421
0.8968609865470852,29.61165048543689,1.1111111111111112,12.661498708010335,8.88888888888889,91.58415841584159,1.098901098901099,79.22077922077922,2.869757174392936,27.165354330708663,1.3071895424836601,8.974358974358974,25.0,2.631578947368421
1.083032490974729,32.1608040201005,0.8620689655172413,15.634218289085547,10.526315789473683,92.58620689655173,0.0,81.20805369127517,2.480916030534351,22.186495176848876,2.3255813953488373,16.883116883116884,75.0,3.2
0.881057268722467,31.27962085308057,0.9259259259259258,13.586956521739129,7.8431372549019605,94.04761904761905,0.22675736961451248,78.52760736196319,3.2679738562091507,21.62162162162162,2.5906735751295336,17.391304347826086,83.33333333333334,2.5974025974025974
1.1494252873563218,32.6530612244898,1.1952191235059761,13.144329896907218,7.8125,92.00743494423791,0.25125628140703515,79.43262411347519,2.0618556701030926,23.34494773519164,1.82648401826484,11.11111111111111,80.0,2.272727272727273
0.8333333333333334,28.947368421052634,0.35842293906810035,14.025974025974024,7.2727272727272725,92.578125,0.25,78.47222222222221,2.293577981651376,24.907063197026023,0.7380073800738007,18.823529411764707,66.66666666666666,2.1052631578947367
1.25,31.818181818181817,1.2345679012345678,12.93800539083558,9.75609756097561,92.94117647058823,0.0,78.08219178082192,2.788844621513944,25.85551330798479,1.3333333333333335,10.975609756097562,23.076923076923077,3.061224489795918
1.1904761904761905,28.7292817679558,0.9708737864077669,14.473684210526317,4.6875,92.1311475409836,0.45351473922902497,75.79617834394905,2.2357723577235773,25.185185185185183,1.5789473684210527,15.942028985507244,100.0,1.1494252873563218
0.9302325581395349,29.955947136563875,0.3436426116838488,12.962962962962962,6.25,93.90862944162437,0.0,80.0,2.591792656587473,25.190839694656486,3.896103896103896,14.606741573033707,71.42857142857143,1.1235955056179776
0.9708737864077669,32.589285714285715,0.33112582781456956,13.165266106442578,6.0,93.6046511627907,0.41841004184100417,81.75675675675676,2.8017241379310347,25.984251968503933,1.4018691588785046,8.60215053763441,100.0,1.0869565217391304
0.7117437722419928,34.12322274881517,1.185770750988142,12.962962962962962,4.477611940298507,93.63957597173145,0.5221932114882507,78.67647058823529,2.479338842975207,23.157894736842106,1.7964071856287425,17.77777777777778,50.0,3.0927835051546393
1.0452961672473868,34.44976076555024,0.0,14.75,9.090909090909092,93.10344827586206,0.23696682464454977,73.37278106508876,2.301255230125523,24.100719424460433,2.857142857142857,12.0,57.14285714285714,2.247191011235955
1.1152416356877324,28.57142857142857,1.2711864406779663,13.370473537604457,6.666666666666667,92.97709923664122,0.21645021645021645,76.0,2.4439918533604885,25.806451612903224,3.4782608695652173,18.055555555555554,100.0,1.1494252873563218
0.7604562737642585,35.046728971962615,1.2,14.24802110817942,6.25,93.66438356164383,0.45454545454545453,81.63265306122449,3.076923076923077,26.41509433962264,3.296703296703297,15.909090909090908,100.0,2.1739130434782608
0.9803921568627451,30.59360730593607,0.8583690987124464,13.157894736842104,8.47457627118644,90.92331768388107,0.21978021978021978,76.19047619047619,1.0845986984815619,23.426573426573427,1.25,13.636363636363635,75.0,2.857142857142857
1.293103448275862,30.73394495412844,1.107011070110701,13.550135501355012,6.779661016949152,93.59165424739196,0.2304147465437788,80.82191780821918,2.1141649048625792,25.0,1.2048192771084338,17.77777777777778,100.0,3.3333333333333335
1.1494252873563218,31.72043010752688,0.3508771929824561,14.560439560439562,7.8431372549019605,92.94670846394985,0.5194805194805194,84.27672955974843,2.4761904761904763,25.28301886792453,1.1363636363636365,15.463917525773196,100.0,2.1052631578947367
1.3100436681222707,33.64485981308411,1.0452961672473868,12.256267409470752,5.454545454545454,92.50425894378195,0.6993006993006993,79.43262411347519,2.5052192066805845,25.735294117647058,1.1764705882352942,15.277777777777779,100.0,2.8301886792452833
0.8130081300813009,33.48837209302326,0.8032128514056224,14.360313315926893,8.47457627118644,94.01197604790418,0.2242152466367713,80.66666666666666,2.4742268041237114,25.099601593625497,5.05050505050505,16.666666666666664,100.0,2.4390243902439024
0.7722007722007722,35.93073593073593,0.3861003861003861,14.454277286135694,4.761904761904762,92.69102990033223,0.23148148148148145,77.85714285714286,2.982107355864811,23.943661971830984,3.8095238095238098,15.730337078651685,100.0,4.25531914893617
0.9708737864077669,27.450980392156865,1.282051282051282,13.753581661891118,8.333333333333332,91.76470588235294,0.24449877750611246,85.91549295774648,2.3706896551724137,24.814814814814813,1.0638297872340425,12.987012987012985,80.0,3.7037037037037033
1.530612244897959,34.234234234234236,0.7142857142857143,11.948051948051948,6.25,93.9799331103679,0.4761904761904762,76.13636363636364,3.018867924528302,23.103448275862068,2.941176470588235,18.421052631578945,83.33333333333334,2.73972602739726
1.36986301369863,35.09615384615385,0.0,13.019390581717452,7.547169811320755,94.72868217054263,0.21978021978021978,74.19354838709677,3.024193548387097,23.826714801444044,4.819277108433735,12.82051282051282,100.0,3.061224489795918
1.2345679012345678,28.421052631578945,0.8733624454148471,11.89873417721519,9.090909090909092,92.93394777265746,0.0,72.72727272727273,2.5193798449612403,24.475524475524477,3.3333333333333335,12.903225806451612,100.0,1.1235955056179776
0.7117437722419928,30.303030303030305,1.5,15.625,6.557377049180328,91.1504424778761,0.0,77.30496453900709,2.981651376146789,23.232323232323232,0.0,13.88888888888889,60.0,2.608695652173913
1.3215859030837005,31.122448979591837,0.4098360655737705,15.64245810055866,8.0,92.3202614379085,0.4158004158004158,76.10062893081762,2.5134649910233393,26.58730158730159,2.272727272727273,13.698630136986301,100.0,1.9230769230769231
0.9615384615384616,26.190476190476193,0.8695652173913043,11.049723756906078,6.349206349206349,93.9209726443769,0.7722007722007722,79.73856209150327,2.73109243697479,24.100719424460433,3.3707865168539324,14.457831325301203,80.0,2.898550724637681
0.6872852233676976,34.57446808510639,0.46511627906976744,12.430939226519337,6.666666666666667,93.1637519872814,0.46403712296983757,79.61783439490446,2.736842105263158,21.21212121212121,3.571428571428571,9.411764705882353,100.0,3.0927835051546393
1.1320754716981132,30.16759776536313,1.2875536480686696,14.804469273743019,8.51063829787234,92.6056338028169,0.4405286343612335,77.41935483870968,3.300970873786408,23.57142857142857,2.312138728323699,17.5,66.66666666666666,4.49438202247191
1.282051282051282,30.34825870646766,1.6064257028112447,14.409221902017292,4.3478260869565215,92.71402550091075,0.0,82.6923076923077,3.386454183266932,24.817518248175183,0.9174311926605505,15.555555555555555,66.66666666666666,2.9702970297029703
1.171875,29.68036529680365,0.38314176245210724,11.951219512195122,7.894736842105263,93.63295880149812,0.8042895442359249,78.37837837837837,2.6415094339622645,22.972972972972975,0.5649717514124294,14.285714285714285,100.0,2.272727272727273
1.1406844106463878,32.960893854748605,0.38314176245210724,14.606741573033707,10.0,92.63803680981594,0.22123893805309736,78.62068965517241,3.088803088803089,24.031007751937985,5.208333333333334,13.333333333333334,85.71428571428571,2.3529411764705883
1.098901098901099,37.096774193548384,0.7905138339920948,13.675213675213676,8.16326530612245,92.96066252587993,0.3125,79.3103448275862,2.793296089385475,23.051948051948052,0.7604562737642585,8.24742268041237,75.0,2.8846153846153846
0.7547169811320755,26.89075630252101,0.8333333333333334,12.8,4.25531914893617,93.65781710914455,0.24509803921568626,70.88607594936708,3.1746031746031744,21.904761904761905,1.5151515151515151,13.541666666666666,66.66666666666666,4.166666666666666
1.3215859030837005,30.801687763713083,0.3703703703703704,13.068181818181818,6.122448979591836,92.98507462686567,0.2702702702702703,83.125,2.643171806167401,24.02826855123675,2.898550724637681,14.942528735632186,80.0,4.0
1.2875536480686696,30.288461538461537,1.079136690647482,13.583815028901732,10.0,92.53996447602132,0.21413276231263384,82.5503355704698,2.0361990950226243,27.559055118110237,1.4018691588785046,16.43835616438356,100.0,2.459016393442623
0.796812749003984,32.89473684210527,0.7142857142857143,13.766233766233766,8.823529411764707,94.45378151260503,0.6772009029345373,79.71014492753623,2.320675105485232,23.357664233576642,2.2900763358778624,15.384615384615385,85.71428571428571,2.380952380952381
1.1811023622047243,30.136986301369863,0.3412969283276451,12.702702702702704,5.357142857142857,95.01661129568106,0.4889975550122249,83.44827586206897,3.0927835051546393,26.877470355731226,2.380952380952381,11.842105263157894,100.0,1.7857142857142856
0.46511627906976744,26.041666666666668,1.0101010101010102,12.928759894459102,9.75609756097561,93.05785123966942,0.6493506493506493,77.77777777777779,2.620967741935484,25.0936329588015,0.7462686567164178,7.142857142857142,100.0,4.123711340206185
1.094890510948905,36.5,0.0,13.019390581717452,7.6923076923076925,94.93243243243244,0.2967359050445104,82.6923076923077,2.6266416510318953,20.86092715231788,1.8633540372670807,18.181818181818183,100.0,3.296703296703297
1.1406844106463878,33.33333333333333,0.8032128514056224,13.77245508982036,7.142857142857142,92.71844660194175,0.6912442396313364,73.25581395348837,2.2263450834879404,25.274725274725274,3.7037037037037033,12.5,80.0,3.5294117647058822
1.0752688172043012,26.027397260273972,0.0,12.144702842377262,9.090909090909092,93.4640522875817,0.2257336343115124,80.66666666666666,2.0,25.099601593625497,3.571428571428571,10.81081081081081,100.0,3.75
1.1811023622047243,30.0,0.411522633744856,14.454277286135694,8.51063829787234,90.28037383177569,0.43859649122807015,72.67441860465115,2.277904328018223,26.58730158730159,0.6578947368421052,9.58904109589041,75.0,2.8846153846153846
0.7434944237918215,29.906542056074763,0.851063829787234,14.004914004914005,7.2727272727272725,91.84549356223177,0.7425742574257426,78.98550724637681,2.62582056892779,23.809523809523807,0.9584664536741214,17.28395061728395,75.0,1.1627906976744187
0.7604562737642585,29.326923076923077,0.8403361344537815,12.968299711815561,6.25,90.8,0.22522522522522523,79.45205479452055,2.9598308668076108,23.131672597864767,0.7518796992481203,19.35483870967742,60.0,3.3333333333333335
0.8733624454148471,35.1931330472103,0.7326007326007326,13.486005089058525,7.142857142857142,94.66666666666667,0.6944444444444444,77.85714285714286,3.5545023696682465,24.907063197026023,1.257861635220126,15.053763440860216,100.0,3.061224489795918
1.094890510948905,34.46601941747573,0.9569377990430622,14.084507042253522,8.695652173913043,92.9245283018868,0.21929824561403508,77.84810126582279,2.1653543307086616,24.334600760456272,4.032258064516129,12.676056338028168,80.0,2.197802197802198
0.8333333333333334,32.33830845771145,0.3558718861209964,13.243243243243244,6.122448979591836,92.45614035087719,0.24630541871921183,79.24528301886792,2.0408163265306123,22.945205479452056,1.5957446808510638,18.571428571428573,100.0,2.4096385542168677
1.4150943396226416,32.323232323232325,0.4424778761061947,12.702702702702704,6.896551724137931,92.33716475095785,0.2070393374741201,81.33333333333333,3.125,25.680933852140075,0.8,16.417910447761194,100.0,2.4
1.0600706713780919,32.30088495575221,0.6944444444444444,15.31791907514451,8.928571428571429,94.10071942446044,0.2617801047120419,78.1456953642384,2.663438256658596,24.045801526717558,1.8867924528301887,16.666666666666664,50.0,3.3333333333333335
1.1363636363636365,31.60377358490566,0.0,15.363128491620111,10.0,93.45047923322683,0.4750593824228029,76.68711656441718,2.4691358024691357,23.239436619718308,5.1020408163265305,14.893617021276595,100.0,1.9047619047619049
1.3215859030837005,27.083333333333332,0.8064516129032258,12.876712328767123,8.51063829787234,92.17527386541471,0.2347417840375587,83.125,3.171247357293869,23.655913978494624,2.3255813953488373,18.29268292682927,100.0,3.571428571428571
1.2295081967213115,33.624454148471614,0.7874015748031495,14.520547945205479,8.333333333333332,93.47517730496455,0.24630541871921183,76.35135135135135,3.0444964871194378,22.508038585209004,6.024096385542169,8.433734939759036,50.0,2.1505376344086025
0.7407407407407408,33.15217391304348,0.0,13.527851458885943,5.555555555555555,93.4959349593496,0.5154639175257731,81.48148148148148,2.404809619238477,24.398625429553263,1.36986301369863,21.59090909090909,100.0,1.2345679012345678
0.7067137809187279,31.336405529953915,0.7692307692307693,14.739884393063585,8.88888888888889,91.01307189542483,0.9153318077803204,76.64233576642336,2.272727272727273,24.087591240875913,2.4193548387096775,14.814814814814813,100.0,3.061224489795918
0.9523809523809524,30.952380952380953,0.38461538461538464,16.43059490084986,6.349206349206349,92.32081911262799,0.4784688995215311,82.20858895705521,2.4029574861367835,26.877470355731226,2.5,14.666666666666666,100.0,3.7735849056603774
1.1673151750972763,30.046948356807512,1.4492753623188406,12.467532467532468,8.620689655172415,92.17687074829932,0.0,78.26086956521739,2.9978586723768736,24.62121212121212,3.2679738562091507,9.411764705882353,100.0,2.380952380952381
0.7575757575757576,33.17307692307692,1.4705882352941175,14.24581005586592,6.976744186046512,92.51824817518248,0.7407407407407408,78.343949044586,2.8301886792452833,25.185185185185183,1.2903225806451613,15.476190476190476,80.0,2.912621359223301
1.0204081632653061,34.196891191709845,0.42194092827004215,14.285714285714285,6.896551724137931,93.55400696864112,0.0,79.28571428571428,2.608695652173913,22.033898305084744,1.2048192771084338,17.24137931034483,100.0,4.166666666666666
0.8583690987124464,28.636363636363637,1.3605442176870748,13.709677419354838,7.2727272727272725,94.10801963993454,0.6756756756756757,79.60526315789474,2.80561122244489,25.0,4.651162790697675,15.555555555555555,100.0,2.4096385542168677
0.7692307692307693,30.726256983240223,0.823045267489712,13.297872340425531,7.547169811320755,93.96284829721363,0.23148148148148145,74.02597402597402,2.9473684210526314,23.46938775510204,3.571428571428571,10.666666666666668,50.0,1.9801980198019802
1.293103448275862,41.91919191919192,1.4388489208633095,14.285714285714285,6.25,92.64,0.0,81.5028901734104,1.5904572564612325,24.46808510638298,2.4193548387096775,16.666666666666664,75.0,2.727272727272727
1.1904761904761905,35.294117647058826,0.7575757575757576,12.332439678284182,10.204081632653061,93.78330373001776,0.5194805194805194,83.56164383561644,2.803738317757009,22.697368421052634,3.7267080745341614,15.853658536585366,100.0,2.5316455696202533
0.8849557522123894,26.81818181818182,0.8547008547008548,13.91304347826087,6.666666666666667,91.19010819165379,0.9615384615384616,80.33707865168539,2.666666666666667,24.264705882352942,3.669724770642202,15.384615384615385,100.0,4.395604395604396
1.2048192771084338,27.96208530805687,1.1673151750972763,12.20159151193634,7.317073170731707,93.16666666666666,0.2380952380952381,76.71232876712328,3.189493433395872,25.724637681159418,5.660377358490567,12.76595744680851,75.0,2.272727272727273
0.390625,25.136612021857925,0.38314176245210724,11.22715404699739,7.6923076923076925,93.66438356164383,0.48192771084337355,75.64102564102564,2.754237288135593,21.92691029900332,2.4096385542168677,14.473684210526317,100.0,2.1052631578947367
1.3157894736842104,30.18867924528302,1.1952191235059761,13.128491620111731,7.547169811320755,93.7791601866252,0.2398081534772182,78.04878048780488,2.8629856850715747,22.36024844720497,3.5294117647058822,12.658227848101266,100.0,3.0927835051546393
0.8658008658008658,28.708133971291865,0.7220216606498195,14.626865671641792,5.128205128205128,93.11475409836065,0.21413276231263384,77.55102040816327,2.1052631578947367,23.076923076923077,2.684563758389262,15.789473684210526,60.0,3.125
0.8620689655172413,31.48936170212766,0.3703703703703704,12.941176470588237,6.25,93.84615384615384,0.0,81.48148148148148,3.0018761726078798,22.448979591836736,3.125,23.595505617977526,27.27272727272727,4.705882352941177
1.0869565217391304,24.858757062146893,1.0452961672473868,13.084112149532709,7.547169811320755,92.52782193958664,0.2801120448179272,82.31292517006803,3.592814371257485,22.2972972972973,1.1627906976744187,14.117647058823529,100.0,4.081632653061225
1.3215859030837005,37.61467889908257,0.7380073800738007,13.28125,5.769230769230769,92.94354838709677,0.45558086560364464,78.91156462585033,3.2397408207343417,23.57142857142857,1.2048192771084338,17.5,80.0,3.296703296703297
1.171875,32.22748815165877,0.8620689655172413,11.716621253405995,6.0,92.97597042513863,0.2544529262086514,81.75675675675676,2.748414376321353,23.711340206185564,0.425531914893617,11.904761904761903,75.0,2.6548672566371683
1.0869565217391304,35.978835978835974,0.8438818565400843,15.013404825737265,8.16326530612245,91.66666666666666,0.24154589371980675,75.86206896551724,2.3109243697478994,22.40802675585284,3.1746031746031744,18.51851851851852,100.0,1.8691588785046727
0.78125,30.275229357798167,0.4,10.249307479224377,10.81081081081081,93.10344827586206,0.2358490566037736,77.35849056603774,2.4539877300613497,24.06015037593985,1.1627906976744187,13.684210526315791,50.0,3.296703296703297
1.1406844106463878,31.19266055045872,0.8849557522123894,12.389380530973451,4.878048780487805,92.39482200647248,0.43010752688172044,83.01886792452831,2.2869022869022873,25.28301886792453,2.564102564102564,10.144927536231885,80.0,3.0927835051546393
1.2396694214876034,28.761061946902654,0.7722007722007722,13.089005235602095,5.263157894736842,92.93478260869566,0.26109660574412535,78.18181818181819,2.6,25.757575757575758,1.9230769230769231,13.253012048192772,100.0,3.0927835051546393
1.090909090909091,34.43396226415094,0.847457627118644,14.367816091954023,8.333333333333332,90.65573770491804,0.6976744186046512,79.5774647887324,2.631578947368421,24.8062015503876,1.4492753623188406,17.24137931034483,100.0,4.49438202247191
0.8733624454148471,31.11111111111111,1.1152416356877324,14.705882352941178,4.761904761904762,93.23583180987202,0.4434589800443459,75.97402597402598,2.4761904761904763,22.868217054263564,1.1976047904191618,15.584415584415584,75.0,3.225806451612903
0.7326007326007326,32.432432432432435,0.0,13.636363636363635,11.11111111111111,93.32273449920508,0.8356545961002786,78.06451612903226,2.301255230125523,22.635135135135133,4.301075268817205,13.924050632911392,100.0,2.3255813953488373
1.1904761904761905,31.746031746031743,1.4634146341463417,13.144329896907218,8.695652173913043,93.10344827586206,0.2347417840375587,81.25,2.7722772277227725,21.766561514195583,3.816793893129771,14.285714285714285,66.66666666666666,2.127659574468085
1.171875,31.28205128205128,0.8368200836820083,14.43850267379679,8.064516129032258,91.84060721062619,0.4796163069544364,77.77777777777779,3.619909502262444,25.185185185185183,0.6779661016949152,16.0,50.0,3.1578947368421053
1.185770750988142,36.597938144329895,0.4132231404958678,14.652956298200515,9.090909090909092,93.25259515570934,0.25,79.86577181208054,1.674641148325359,22.364217252396166,1.171875,15.942028985507244,66.66666666666666,3.1914893617021276
0.8097165991902834,31.521739130434785,0.4484304932735426,13.802083333333334,7.142857142857142,91.07142857142857,0.4662004662004662,78.57142857142857,3.4482758620689653,23.703703703703706,3.1645569620253164,14.444444444444443,100.0,2.1739130434782608
1.2096774193548387,34.22459893048128,1.3043478260869565,14.529914529914532,8.333333333333332,92.83276450511946,0.0,81.02189781021897,2.6970954356846475,24.113475177304963,0.8771929824561403,20.0,100.0,2.586206896551724
