AB,AFIB,AFL,B,IVR,N,NOD,P,PREX,SBR,SVTA,T,VFL,VT
0.0,47.69230769230769,42.857142857142854,18.248175182481752,40.0,88.3702213279678,0.0,82.14285714285714,16.666666666666664,60.3448275862069,12.5,18.0327868852459,10.0,0.0
0.0,50.0,27.500000000000004,27.102803738317753,30.0,88.19554848966614,10.0,81.34920634920636,0.0,50.0,20.0,19.047619047619047,0.0,0.0
25.0,45.95375722543353,36.11111111111111,18.487394957983195,40.0,89.00738310090239,0.0,80.54474708171206,4.166666666666666,50.0,33.33333333333333,22.807017543859647,36.36363636363637,0.0
50.0,47.151898734177216,25.0,25.438596491228072,33.33333333333333,88.84892086330936,10.0,81.34920634920636,20.0,56.71641791044776,0.0,27.500000000000004,0.0,0.0
0.0,46.017699115044245,37.5,23.58490566037736,50.0,88.55300282144297,0.0,81.54981549815497,12.5,59.67741935483871,10.0,17.5,28.57142857142857,40.0
0.0,49.201277955271564,32.35294117647059,18.75,33.33333333333333,88.35261268448345,0.0,83.203125,16.666666666666664,55.4054054054054,16.666666666666664,6.8181818181818175,50.0,0.0
33.33333333333333,48.30769230769231,36.666666666666664,26.41509433962264,14.285714285714285,88.279698053238,8.333333333333332,82.25806451612904,4.0,54.666666666666664,0.0,25.0,0.0,16.666666666666664
50.0,47.76119402985074,17.857142857142858,29.565217391304348,44.44444444444444,88.39177750906893,0.0,86.91983122362869,12.0,43.24324324324324,7.6923076923076925,18.867924528301888,33.33333333333333,0.0
22.22222222222222,43.44262295081967,33.33333333333333,29.67032967032967,33.33333333333333,88.50715746421268,0.0,83.9080459770115,20.0,48.275862068965516,0.0,16.0,0.0,25.0
0.0,44.620253164556964,32.0,26.168224299065418,28.57142857142857,87.76574408343362,0.0,82.8125,8.0,40.69767441860465,12.5,10.0,12.5,20.0
0.0,44.761904761904766,34.48275862068966,33.33333333333333,28.57142857142857,88.46000795861521,0.0,84.8249027237354,8.333333333333332,53.42465753424658,0.0,15.217391304347828,12.5,14.285714285714285
0.0,43.88059701492537,42.857142857142854,27.586206896551722,66.66666666666666,88.03866290777286,0.0,78.21428571428571,11.11111111111111,51.31578947368421,42.857142857142854,20.833333333333336,0.0,0.0
50.0,46.504559270516715,25.0,23.076923076923077,83.33333333333334,88.1952781112445,0.0,79.84790874524715,13.636363636363635,53.2258064516129,10.0,18.0,0.0,0.0
20.0,46.06060606060606,30.555555555555557,20.792079207920793,33.33333333333333,88.32323232323233,0.0,82.03125,13.043478260869565,49.35064935064935,11.76470588235294,21.428571428571427,18.181818181818183,25.0
33.33333333333333,46.62756598240469,37.5,24.299065420560748,44.44444444444444,88.49736735520453,0.0,81.74603174603175,15.384615384615385,41.48936170212766,0.0,15.384615384615385,0.0,0.0
20.0,50.31645569620253,37.142857142857146,25.510204081632654,50.0,88.29365079365078,0.0,87.55020080321285,12.5,50.66666666666667,0.0,16.666666666666664,25.0,0.0
20.0,51.118210862619804,37.5,24.778761061946902,66.66666666666666,88.59753675009932,0.0,81.53846153846153,11.11111111111111,59.42028985507246,16.666666666666664,20.51282051282051,0.0,0.0
20.0,49.14675767918089,32.142857142857146,19.41747572815534,28.57142857142857,88.02042419481539,36.36363636363637,87.8048780487805,2.7027027027027026,62.31884057971014,12.5,18.421052631578945,0.0,0.0
20.0,48.54651162790697,36.666666666666664,25.0,28.57142857142857,89.63142972863507,9.090909090909092,82.12927756653993,9.67741935483871,57.333333333333336,50.0,16.666666666666664,16.666666666666664,0.0
0.0,49.35064935064935,20.588235294117645,15.966386554621847,33.33333333333333,88.32204065364687,0.0,81.29770992366412,10.714285714285714,51.61290322580645,42.857142857142854,20.0,27.27272727272727,0.0
20.0,42.58064516129032,20.0,23.300970873786408,75.0,87.28577122359505,0.0,79.2156862745098,11.428571428571429,46.3768115942029,66.66666666666666,26.229508196721312,9.090909090909092,0.0
0.0,49.152542372881356,22.727272727272727,25.225225225225223,25.0,88.39285714285714,0.0,76.2081784386617,7.142857142857142,63.095238095238095,10.0,22.058823529411764,50.0,0.0
0.0,48.85993485342019,21.21212121212121,31.775700934579437,33.33333333333333,88.4476534296029,0.0,81.42857142857143,8.333333333333332,58.82352941176471,25.0,16.666666666666664,0.0,12.5
0.0,49.079754601226995,34.21052631578947,24.03846153846154,40.0,87.86427145708583,20.0,80.16194331983806,8.571428571428571,50.0,10.0,15.517241379310345,0.0,16.666666666666664
0.0,44.83775811209439,26.923076923076923,27.184466019417474,60.0,88.73182552504039,13.333333333333334,82.94573643410853,10.0,54.054054054054056,0.0,12.962962962962962,20.0,20.0
0.0,46.95121951219512,20.588235294117645,21.875,11.11111111111111,87.76083467094703,0.0,81.15384615384616,6.0606060606060606,47.76119402985074,37.5,14.545454545454545,0.0,0.0
50.0,48.837209302325576,27.027027027027028,25.925925925925924,45.45454545454545,88.72901678657075,0.0,83.47107438016529,3.0303030303030303,54.054054054054056,0.0,14.285714285714285,20.0,0.0
100.0,43.988269794721404,30.76923076923077,22.448979591836736,25.0,88.12749003984064,16.666666666666664,82.21343873517787,7.4074074074074066,57.57575757575758,50.0,30.0,33.33333333333333,33.33333333333333
0.0,51.465798045602604,40.0,24.761904761904763,80.0,88.60455817672931,33.33333333333333,80.98859315589354,6.451612903225806,42.857142857142854,0.0,25.454545454545453,16.666666666666664,0.0
33.33333333333333,46.71052631578947,19.444444444444446,28.448275862068968,50.0,87.84708249496983,16.666666666666664,82.8996282527881,8.823529411764707,41.891891891891895,0.0,12.5,0.0,0.0
66.66666666666666,50.0,28.57142857142857,32.71028037383177,57.14285714285714,88.84397736459175,0.0,83.9506172839506,12.76595744680851,43.58974358974359,20.0,17.857142857142858,7.6923076923076925,0.0
,48.54368932038835,33.33333333333333,28.82882882882883,16.666666666666664,88.65529551765172,0.0,85.29411764705883,24.0,60.0,14.285714285714285,18.0327868852459,50.0,50.0
0.0,47.40061162079511,37.142857142857146,18.867924528301888,66.66666666666666,87.80290791599353,10.0,83.46456692913385,21.052631578947366,51.28205128205128,0.0,15.384615384615385,50.0,16.666666666666664
0.0,50.165016501650165,42.10526315789473,21.951219512195124,50.0,89.00080580177277,0.0,82.26415094339623,9.67741935483871,56.52173913043478,0.0,12.0,0.0,0.0
20.0,49.51768488745981,31.03448275862069,23.52941176470588,60.0,87.69968051118211,21.428571428571427,85.32818532818533,12.195121951219512,56.25,0.0,14.000000000000002,37.5,0.0
0.0,47.59206798866856,34.285714285714285,29.292929292929294,33.33333333333333,89.09606809890556,33.33333333333333,79.62264150943396,12.903225806451612,45.83333333333333,22.22222222222222,17.073170731707318,25.0,0.0
0.0,47.93650793650794,18.51851851851852,19.318181818181817,57.14285714285714,87.99355358581789,11.11111111111111,79.1970802919708,7.142857142857142,58.97435897435898,37.5,12.5,42.857142857142854,0.0
25.0,45.67901234567901,42.30769230769231,27.368421052631582,60.0,88.17204301075269,0.0,83.08823529411765,16.129032258064516,47.76119402985074,50.0,11.538461538461538,25.0,0.0
0.0,45.86894586894587,36.36363636363637,24.731182795698924,66.66666666666666,88.97860314897052,14.285714285714285,82.06106870229007,8.571428571428571,57.534246575342465,50.0,23.214285714285715,20.0,0.0
0.0,47.151898734177216,32.432432432432435,24.299065420560748,37.5,88.47227762265656,8.333333333333332,84.25196850393701,11.538461538461538,58.666666666666664,10.0,12.82051282051282,16.666666666666664,25.0
0.0,48.338368580060425,26.08695652173913,34.40860215053764,75.0,87.93512658227847,12.5,82.94573643410853,15.384615384615385,52.85714285714286,0.0,22.727272727272727,33.33333333333333,0.0
33.33333333333333,46.58385093167702,28.57142857142857,21.296296296296298,22.22222222222222,87.78044871794873,14.285714285714285,80.0,11.76470588235294,56.666666666666664,20.0,15.625,20.0,16.666666666666664
25.0,51.038575667655785,25.0,26.53061224489796,42.857142857142854,89.41270475429485,20.0,82.62548262548263,12.82051282051282,55.55555555555556,0.0,18.91891891891892,28.57142857142857,0.0
0.0,50.1577287066246,25.0,20.212765957446805,57.14285714285714,88.2565130260521,7.6923076923076925,78.8679245283019,15.384615384615385,50.617283950617285,28.57142857142857,18.91891891891892,0.0,10.0
25.0,52.44299674267101,29.03225806451613,27.956989247311824,50.0,87.81065088757396,0.0,81.88976377952756,18.181818181818183,51.28205128205128,33.33333333333333,9.433962264150944,20.0,0.0
50.0,45.110410094637224,32.142857142857146,27.906976744186046,37.5,87.79434850863423,14.285714285714285,85.08064516129032,11.11111111111111,50.72463768115942,20.0,15.686274509803921,40.0,0.0
0.0,49.36305732484077,43.47826086956522,24.271844660194176,16.666666666666664,88.69143780290791,16.666666666666664,82.14285714285714,17.647058823529413,46.75324675324675,7.142857142857142,15.217391304347828,20.0,50.0
25.0,48.30508474576271,36.666666666666664,40.57971014492754,50.0,89.05372894947875,12.5,85.2,17.5,50.68493150684932,27.27272727272727,21.568627450980394,14.285714285714285,0.0
0.0,55.016181229773466,36.84210526315789,28.37837837837838,50.0,88.26510721247564,0.0,86.5079365079365,12.903225806451612,51.515151515151516,33.33333333333333,16.071428571428573,25.0,14.285714285714285
14.285714285714285,46.62379421221865,32.0,23.404255319148938,18.181818181818183,87.81275221953187,12.5,79.7752808988764,5.88235294117647,45.45454545454545,0.0,12.5,0.0,10.0
66.66666666666666,50.0,34.285714285714285,27.522935779816514,50.0,88.00318852132324,7.6923076923076925,81.08108108108108,3.3333333333333335,46.34146341463415,50.0,15.686274509803921,37.5,20.0
33.33333333333333,48.92307692307693,29.629629629629626,37.27272727272727,50.0,88.67469879518072,0.0,79.54545454545455,11.11111111111111,52.17391304347826,0.0,13.461538461538462,0.0,0.0
0.0,46.68769716088328,23.333333333333332,26.595744680851062,60.0,87.77292576419214,0.0,78.2258064516129,3.8461538461538463,45.45454545454545,0.0,19.148936170212767,41.66666666666667,16.666666666666664
33.33333333333333,51.59235668789809,16.0,25.40983606557377,50.0,88.83964544721998,9.090909090909092,77.86259541984732,3.7037037037037033,46.75324675324675,16.666666666666664,22.448979591836736,12.5,0.0
25.0,46.53465346534654,37.5,31.03448275862069,33.33333333333333,87.30345911949685,8.333333333333332,83.5820895522388,15.384615384615385,55.172413793103445,20.0,15.217391304347828,30.0,50.0
100.0,48.97260273972603,42.857142857142854,28.57142857142857,25.0,87.64221263240486,10.0,84.73895582329317,9.375,50.0,10.0,13.513513513513514,0.0,0.0
50.0,46.81528662420382,35.294117647058826,24.242424242424242,37.5,87.85488958990535,0.0,88.70967741935483,23.333333333333332,54.285714285714285,0.0,18.0,0.0,33.33333333333333
0.0,48.064516129032256,33.33333333333333,21.73913043478261,28.57142857142857,88.03656597774246,7.6923076923076925,82.14285714285714,3.3333333333333335,54.54545454545454,33.33333333333333,18.75,36.36363636363637,0.0
0.0,47.14285714285714,30.303030303030305,21.21212121212121,25.0,88.80837359098228,0.0,86.11111111111111,15.625,48.837209302325576,33.33333333333333,16.216216216216218,28.57142857142857,0.0
12.5,49.140893470790374,50.0,28.037383177570092,33.33333333333333,88.84920634920634,0.0,79.92831541218638,13.88888888888889,66.17647058823529,33.33333333333333,21.73913043478261,0.0,9.090909090909092
10.0,47.147147147147145,26.47058823529412,24.242424242424242,50.0,87.86661309762958,7.6923076923076925,82.39999999999999,16.0,42.028985507246375,0.0,13.846153846153847,40.0,0.0
25.0,47.63231197771588,40.74074074074074,19.047619047619047,50.0,88.8663967611336,0.0,83.7037037037037,4.166666666666666,47.5609756097561,25.0,31.03448275862069,10.0,0.0
100.0,48.598130841121495,36.36363636363637,25.742574257425744,55.55555555555556,89.19135308246598,0.0,82.22222222222221,20.689655172413794,69.6969696969697,0.0,17.307692307692307,12.5,0.0
33.33333333333333,45.13274336283185,34.48275862068966,23.853211009174313,,88.29659318637275,0.0,85.83333333333333,6.896551724137931,57.971014492753625,0.0,16.129032258064516,0.0,20.0
25.0,48.4472049689441,27.027027027027028,28.723404255319153,75.0,88.35534213685474,18.181818181818183,86.34538152610442,15.625,46.05263157894737,0.0,23.214285714285715,14.285714285714285,0.0
50.0,44.09221902017291,25.0,20.0,40.0,87.67619814740235,0.0,84.52380952380952,16.666666666666664,55.55555555555556,16.666666666666664,15.09433962264151,28.57142857142857,7.6923076923076925
0.0,47.32142857142857,34.375,31.57894736842105,40.0,88.25665859564165,9.090909090909092,80.71428571428572,11.11111111111111,61.19402985074627,7.6923076923076925,16.666666666666664,20.0,0.0
25.0,50.887573964497044,34.48275862068966,30.526315789473685,0.0,88.92,0.0,87.19008264462809,14.285714285714285,52.4390243902439,25.0,21.73913043478261,33.33333333333333,0.0
0.0,44.54828660436137,48.148148148148145,32.075471698113205,50.0,87.37594283445812,7.6923076923076925,88.51063829787233,9.090909090909092,43.47826086956522,0.0,18.867924528301888,14.285714285714285,0.0
33.33333333333333,50.65359477124183,40.0,24.59016393442623,25.0,88.24232762056596,0.0,77.44360902255639,6.25,55.35714285714286,20.0,18.0327868852459,0.0,0.0
100.0,45.59748427672956,45.16129032258064,28.57142857142857,33.33333333333333,88.03999999999999,0.0,82.78688524590164,20.0,51.21951219512195,14.285714285714285,14.084507042253522,0.0,0.0
20.0,46.794871794871796,42.857142857142854,28.723404255319153,40.0,87.22978382706165,18.181818181818183,81.25,10.344827586206897,51.94805194805194,0.0,12.5,14.285714285714285,0.0
40.0,45.8966565349544,28.947368421052634,22.727272727272727,40.0,87.94498381877023,21.428571428571427,79.62264150943396,10.0,43.58974358974359,33.33333333333333,28.57142857142857,25.0,25.0
50.0,43.54838709677419,31.428571428571427,22.429906542056074,50.0,88.01111552203255,0.0,83.39622641509435,17.391304347826086,43.05555555555556,0.0,12.5,25.0,0.0
12.5,51.67785234899329,25.925925925925924,28.30188679245283,50.0,87.89579158316633,9.090909090909092,80.3088803088803,11.76470588235294,54.32098765432099,9.090909090909092,21.428571428571427,0.0,0.0
100.0,51.26353790613718,35.714285714285715,20.175438596491226,100.0,88.18398096748612,0.0,80.07662835249042,13.793103448275861,54.54545454545454,0.0,13.114754098360656,0.0,0.0
20.0,45.182724252491695,27.77777777777778,27.0,50.0,87.38486183420105,11.11111111111111,79.56204379562044,17.391304347826086,46.25,0.0,17.02127659574468,33.33333333333333,0.0
0.0,45.56574923547401,32.25806451612903,30.693069306930692,50.0,88.10853950518755,0.0,81.81818181818183,0.0,40.44943820224719,0.0,12.82051282051282,25.0,0.0
25.0,46.98412698412698,31.57894736842105,20.454545454545457,25.0,88.29228905934599,0.0,79.62962962962963,8.333333333333332,47.674418604651166,33.33333333333333,20.0,50.0,0.0
0.0,47.89156626506024,29.629629629629626,28.57142857142857,66.66666666666666,88.67469879518072,6.666666666666667,80.45112781954887,12.0,58.2089552238806,0.0,20.689655172413794,14.285714285714285,25.0
0.0,43.360433604336045,39.285714285714285,20.652173913043477,40.0,88.4283955683217,0.0,79.92831541218638,10.256410256410255,55.4054054054054,0.0,14.893617021276595,12.5,0.0
20.0,41.19496855345912,30.76923076923077,21.62162162162162,50.0,88.10483870967742,0.0,83.84615384615385,9.090909090909092,45.348837209302324,14.285714285714285,14.814814814814813,25.0,50.0
0.0,48.41772151898734,44.0,22.22222222222222,12.5,87.59354076408034,0.0,83.79446640316206,16.666666666666664,42.68292682926829,33.33333333333333,18.51851851851852,0.0,0.0
100.0,46.15384615384615,42.857142857142854,22.22222222222222,66.66666666666666,87.63955342902712,0.0,82.28782287822878,15.151515151515152,48.717948717948715,16.666666666666664,9.433962264150944,60.0,0.0
10.0,48.24561403508772,37.93103448275862,20.72072072072072,60.0,88.98858075040783,8.333333333333332,82.26415094339623,23.076923076923077,52.23880597014925,11.11111111111111,18.75,50.0,16.666666666666664
20.0,49.158249158249156,20.0,20.51282051282051,28.57142857142857,87.39164696611506,0.0,84.0,8.823529411764707,59.67741935483871,0.0,10.526315789473683,28.57142857142857,25.0
20.0,44.51219512195122,31.25,28.28282828282828,42.857142857142854,87.98558269923909,0.0,80.07380073800738,10.344827586206897,42.10526315789473,0.0,25.0,33.33333333333333,0.0
20.0,47.02194357366771,25.925925925925924,25.471698113207548,75.0,87.55905511811024,0.0,85.94377510040161,10.526315789473683,53.96825396825397,0.0,13.043478260869565,33.33333333333333,0.0
12.5,45.56574923547401,38.23529411764706,25.210084033613445,0.0,88.99755501222494,0.0,86.5079365079365,3.4482758620689653,45.67901234567901,14.285714285714285,21.666666666666668,16.666666666666664,20.0
16.666666666666664,48.34437086092716,29.629629629629626,26.41509433962264,33.33333333333333,87.89077958053028,0.0,83.07692307692308,14.285714285714285,49.25373134328358,0.0,20.0,20.0,0.0
50.0,49.681528662420384,34.21052631578947,18.75,37.5,88.47239016525594,0.0,78.49462365591397,12.903225806451612,49.275362318840585,18.181818181818183,17.02127659574468,55.55555555555556,12.5
40.0,48.38709677419355,54.83870967741935,32.926829268292686,50.0,87.74703557312253,7.6923076923076925,86.85258964143426,9.67741935483871,54.166666666666664,0.0,16.666666666666664,42.857142857142854,14.285714285714285
33.33333333333333,47.88273615635179,29.166666666666668,26.21359223300971,60.0,87.45003996802558,0.0,83.984375,8.823529411764707,51.162790697674424,25.0,11.538461538461538,20.0,0.0
40.0,48.328267477203646,35.13513513513514,21.428571428571427,60.0,88.32731648616125,14.285714285714285,84.39999999999999,11.76470588235294,46.75324675324675,11.11111111111111,14.583333333333334,20.0,0.0
66.66666666666666,46.070460704607044,34.61538461538461,21.62162162162162,40.0,88.75355257815673,12.5,85.94377510040161,18.181818181818183,49.31506849315068,11.11111111111111,17.073170731707318,50.0,0.0
50.0,46.82080924855491,28.205128205128204,29.82456140350877,66.66666666666666,88.96551724137932,9.090909090909092,79.8507462686567,9.090909090909092,61.8421052631579,20.0,17.94871794871795,50.0,16.666666666666664
0.0,48.318042813455655,25.925925925925924,29.411764705882355,80.0,88.51540616246498,0.0,82.44274809160305,5.88235294117647,52.702702702702695,0.0,16.666666666666664,50.0,0.0
33.33333333333333,45.845272206303726,35.294117647058826,29.357798165137616,25.0,88.04653028479743,12.5,85.31746031746032,7.4074074074074066,50.0,12.5,20.0,50.0,0.0
0.0,46.49859943977591,32.142857142857146,25.688073394495415,16.666666666666664,88.7713588283157,10.0,84.16988416988417,15.625,50.0,14.285714285714285,17.647058823529413,12.5,25.0
28.57142857142857,50.14749262536873,31.03448275862069,31.313131313131315,25.0,88.46615939126953,8.333333333333332,80.3921568627451,0.0,52.77777777777778,0.0,23.809523809523807,20.0,12.5
0.0,47.66355140186916,25.0,18.478260869565215,66.66666666666666,88.03212851405623,7.6923076923076925,86.87258687258688,11.76470588235294,59.09090909090909,28.57142857142857,14.0625,0.0,20.0
40.0,49.079754601226995,34.78260869565217,28.000000000000004,50.0,89.00439824070372,0.0,84.375,17.142857142857142,64.38356164383562,14.285714285714285,19.148936170212767,12.5,33.33333333333333
25.0,45.42483660130719,40.0,27.522935779816514,66.66666666666666,87.90290489454836,7.6923076923076925,80.3088803088803,15.789473684210526,41.30434782608695,10.0,25.0,33.33333333333333,14.285714285714285
0.0,43.8235294117647,32.25806451612903,28.440366972477065,66.66666666666666,88.32445718967637,0.0,81.74904942965779,15.151515151515152,45.83333333333333,10.0,12.244897959183673,20.0,0.0
25.0,47.8125,26.666666666666668,22.0,40.0,88.8134238913304,0.0,82.55813953488372,18.51851851851852,55.26315789473685,28.57142857142857,18.0,16.666666666666664,25.0
0.0,46.13003095975232,26.47058823529412,23.958333333333336,16.666666666666664,87.25607327757865,0.0,82.53968253968253,12.121212121212121,39.0625,14.285714285714285,12.0,14.285714285714285,20.0
0.0,47.79874213836478,32.0,19.444444444444446,33.33333333333333,88.40175368672777,28.57142857142857,79.1970802919708,20.0,59.154929577464785,0.0,23.684210526315788,0.0,0.0
33.33333333333333,47.878787878787875,16.666666666666664,32.97872340425532,50.0,88.32807570977917,8.333333333333332,84.75836431226766,19.047619047619047,43.333333333333336,50.0,25.0,40.0,0.0
20.0,50.63694267515923,32.432432432432435,20.618556701030926,30.0,88.87116074990028,10.0,81.34328358208955,4.761904761904762,59.09090909090909,0.0,13.20754716981132,20.0,0.0
50.0,48.44290657439446,33.33333333333333,24.46808510638298,57.14285714285714,87.75187672856578,10.0,82.6923076923077,14.814814814814813,50.0,8.333333333333332,14.000000000000002,20.0,0.0
0.0,47.38461538461539,27.77777777777778,27.184466019417474,18.181818181818183,89.05675786035117,0.0,81.36882129277566,17.647058823529413,53.76344086021505,20.0,16.666666666666664,12.5,33.33333333333333
50.0,44.412607449856736,26.31578947368421,20.869565217391305,50.0,89.06948394961398,14.285714285714285,80.38461538461539,17.857142857142858,50.76923076923077,20.0,17.647058823529413,28.57142857142857,66.66666666666666
100.0,47.88273615635179,29.629629629629626,26.126126126126124,14.285714285714285,87.6984126984127,0.0,85.82995951417004,8.0,45.56962025316456,14.285714285714285,13.461538461538462,0.0,0.0
25.0,42.94294294294294,24.137931034482758,26.126126126126124,80.0,88.19024586860137,0.0,84.35114503816794,13.043478260869565,48.64864864864865,12.5,10.416666666666668,8.333333333333332,0.0
0.0,43.674698795180724,27.27272727272727,20.967741935483872,66.66666666666666,88.3578431372549,7.142857142857142,77.39463601532567,21.052631578947366,46.05263157894737,0.0,20.454545454545457,16.666666666666664,8.333333333333332
0.0,47.8125,28.000000000000004,19.41747572815534,66.66666666666666,87.69352917824533,0.0,81.85328185328186,12.121212121212121,55.072463768115945,0.0,12.76595744680851,100.0,16.666666666666664
0.0,50.97402597402597,21.428571428571427,20.754716981132077,33.33333333333333,88.34134615384616,16.666666666666664,83.52941176470588,5.405405405405405,52.27272727272727,0.0,22.22222222222222,0.0,0.0
25.0,44.31137724550898,29.03225806451613,25.806451612903224,66.66666666666666,88.51866720192693,0.0,81.68498168498168,11.76470588235294,46.478873239436616,0.0,23.076923076923077,25.0,0.0
33.33333333333333,48.554913294797686,29.629629629629626,26.05042016806723,60.0,88.18993506493507,0.0,85.65737051792829,8.823529411764707,41.25,11.11111111111111,11.363636363636363,20.0,0.0
25.0,50.170648464163826,37.142857142857146,24.242424242424242,100.0,88.22839264763395,7.6923076923076925,80.75471698113208,27.27272727272727,53.125,14.285714285714285,13.157894736842104,100.0,66.66666666666666
100.0,45.2887537993921,37.5,21.929824561403507,25.0,87.96596434359806,28.57142857142857,82.5278810408922,7.6923076923076925,48.57142857142857,0.0,14.285714285714285,12.5,0.0
0.0,45.714285714285715,27.027027027027028,28.26086956521739,0.0,87.25178713264495,0.0,85.60606060606061,12.5,51.388888888888886,50.0,11.904761904761903,25.0,0.0
33.33333333333333,45.75757575757576,25.0,23.711340206185564,33.33333333333333,87.58978451715882,0.0,77.4074074074074,24.0,50.0,20.0,23.076923076923077,33.33333333333333,0.0
100.0,45.94594594594595,34.146341463414636,21.153846153846153,57.14285714285714,88.65306122448979,0.0,76.69172932330827,6.451612903225806,49.382716049382715,23.076923076923077,15.517241379310345,0.0,0.0
0.0,45.182724252491695,22.22222222222222,27.586206896551722,33.33333333333333,87.09932726553225,0.0,82.79569892473118,11.538461538461538,43.93939393939394,0.0,29.166666666666668,25.0,0.0
0.0,49.127906976744185,28.125,29.47368421052631,75.0,89.09164639091647,0.0,81.27340823970037,9.090909090909092,44.15584415584416,14.285714285714285,15.789473684210526,28.57142857142857,0.0
50.0,42.073170731707314,26.08695652173913,24.175824175824175,50.0,87.5993640699523,0.0,83.26848249027238,4.166666666666666,42.10526315789473,18.181818181818183,10.9375,14.285714285714285,0.0
0.0,49.546827794561935,35.13513513513514,23.684210526315788,100.0,89.043271139341,0.0,83.5820895522388,13.793103448275861,57.6271186440678,0.0,17.77777777777778,20.0,16.666666666666664
0.0,48.986486486486484,26.47058823529412,20.37037037037037,50.0,87.81174577634755,12.5,81.34328358208955,7.6923076923076925,54.44444444444444,8.333333333333332,12.962962962962962,28.57142857142857,16.666666666666664
0.0,48.40764331210191,48.0,28.421052631578945,60.0,88.05732484076432,0.0,84.50184501845018,7.4074074074074066,50.0,0.0,12.727272727272727,0.0,16.666666666666664
50.0,41.967213114754095,20.0,27.184466019417474,33.33333333333333,87.22310126582279,14.285714285714285,81.30081300813008,10.0,44.73684210526316,0.0,17.02127659574468,18.181818181818183,0.0
33.33333333333333,47.16417910447761,33.33333333333333,22.22222222222222,33.33333333333333,88.15471394037067,0.0,81.53846153846153,9.75609756097561,53.333333333333336,0.0,23.684210526315788,12.5,0.0
0.0,43.85382059800664,34.285714285714285,21.73913043478261,50.0,87.32394366197182,14.285714285714285,80.45112781954887,5.0,56.71641791044776,11.11111111111111,13.20754716981132,9.090909090909092,25.0
33.33333333333333,52.59938837920489,25.0,27.173913043478258,75.0,88.74546187979023,0.0,82.5278810408922,15.384615384615385,47.5609756097561,0.0,13.953488372093023,30.0,0.0
,50.764525993883794,25.0,25.742574257425744,62.5,87.89808917197452,12.5,86.04651162790698,5.263157894736842,48.75,16.666666666666664,8.333333333333332,12.5,0.0
50.0,47.57575757575758,25.0,27.173913043478258,42.857142857142854,87.77206173328057,14.285714285714285,80.15873015873017,20.0,51.66666666666667,25.0,14.285714285714285,20.0,0.0
0.0,48.13664596273292,23.25581395348837,32.967032967032964,75.0,87.86793953858393,0.0,82.6086956521739,4.761904761904762,50.0,16.666666666666664,25.925925925925924,25.0,33.33333333333333
50.0,45.40059347181009,32.5,22.018348623853214,66.66666666666666,89.25820835022294,0.0,85.82089552238806,16.666666666666664,58.46153846153847,0.0,17.741935483870968,0.0,0.0
16.666666666666664,51.09034267912772,40.0,28.57142857142857,42.857142857142854,87.82229274097581,0.0,86.69354838709677,30.434782608695656,46.3768115942029,10.0,25.49019607843137,22.22222222222222,0.0
0.0,48.35820895522388,31.57894736842105,37.254901960784316,50.0,88.73182552504039,0.0,81.31868131868131,25.0,48.68421052631579,33.33333333333333,10.526315789473683,28.57142857142857,0.0
0.0,39.57055214723926,37.83783783783784,23.076923076923077,30.0,88.20224719101124,0.0,84.58498023715416,16.0,61.72839506172839,25.0,26.41509433962264,16.666666666666664,0.0
66.66666666666666,48.4641638225256,35.483870967741936,26.96629213483146,20.0,87.78864970645792,0.0,83.203125,3.3333333333333335,64.70588235294117,27.27272727272727,25.0,42.857142857142854,40.0
50.0,50.33333333333333,25.71428571428571,36.36363636363637,16.666666666666664,89.26307448494454,0.0,83.21167883211679,13.333333333333334,51.35135135135135,11.11111111111111,23.91304347826087,16.666666666666664,33.33333333333333
100.0,46.774193548387096,38.23529411764706,26.666666666666668,37.5,88.1124497991968,0.0,81.68498168498168,14.285714285714285,54.54545454545454,26.666666666666668,7.547169811320755,14.285714285714285,16.666666666666664
0.0,47.839506172839506,35.294117647058826,20.18348623853211,100.0,88.27061649319455,0.0,84.7328244274809,8.823529411764707,57.8125,0.0,18.367346938775512,25.0,33.33333333333333
0.0,47.6027397260274,28.125,24.0,28.57142857142857,88.12077870480731,0.0,81.88679245283019,13.793103448275861,54.83870967741935,0.0,22.22222222222222,25.0,50.0
16.666666666666664,44.08284023668639,24.242424242424242,25.423728813559322,66.66666666666666,88.50342880193627,10.0,82.35294117647058,9.67741935483871,43.24324324324324,0.0,16.666666666666664,25.0,14.285714285714285
33.33333333333333,45.22292993630573,37.03703703703704,24.096385542168676,60.0,87.7445109780439,11.11111111111111,81.81818181818183,14.285714285714285,45.83333333333333,14.285714285714285,20.689655172413794,0.0,0.0
50.0,48.37662337662338,32.25806451612903,29.03225806451613,66.66666666666666,88.2120253164557,7.6923076923076925,89.37007874015748,3.225806451612903,48.57142857142857,0.0,20.408163265306122,16.666666666666664,16.666666666666664
50.0,50.303030303030305,21.428571428571427,23.595505617977526,50.0,87.88844621513944,0.0,80.53435114503816,0.0,53.03030303030303,0.0,9.090909090909092,0.0,33.33333333333333
20.0,47.16417910447761,25.71428571428571,25.6198347107438,60.0,88.73692679002414,14.285714285714285,82.17054263565892,22.22222222222222,56.92307692307692,25.0,26.666666666666668,0.0,20.0
25.0,43.54838709677419,37.142857142857146,24.719101123595504,60.0,87.85488958990535,11.11111111111111,82.67716535433071,10.0,51.35135135135135,0.0,28.205128205128204,40.0,16.666666666666664
25.0,51.19047619047619,25.0,25.892857142857146,37.5,88.77221324717286,0.0,80.87649402390437,7.6923076923076925,52.5,0.0,15.0,60.0,0.0
40.0,47.151898734177216,16.666666666666664,26.851851851851855,40.0,87.82026014978321,14.285714285714285,82.00836820083683,14.285714285714285,45.83333333333333,25.0,14.285714285714285,22.22222222222222,0.0
16.666666666666664,48.90965732087228,32.35294117647059,14.772727272727273,40.0,87.86543852623147,0.0,82.1969696969697,9.090909090909092,45.0,9.090909090909092,17.073170731707318,0.0,16.666666666666664
40.0,46.98795180722892,21.052631578947366,19.626168224299064,20.0,88.07523009203682,0.0,87.09677419354838,22.58064516129032,54.54545454545454,33.33333333333333,13.461538461538462,25.0,33.33333333333333
0.0,51.162790697674424,32.142857142857146,23.46938775510204,60.0,87.40503798480607,0.0,82.94573643410853,7.4074074074074066,38.55421686746988,28.57142857142857,15.873015873015872,33.33333333333333,0.0
0.0,45.962732919254655,22.22222222222222,32.0,33.33333333333333,88.47087378640776,14.285714285714285,77.61194029850746,6.25,50.0,22.22222222222222,16.27906976744186,20.0,11.11111111111111
0.0,46.325878594249204,27.586206896551722,26.53061224489796,60.0,88.08,0.0,83.27272727272728,9.67741935483871,47.69230769230769,50.0,16.94915254237288,0.0,0.0
0.0,52.13414634146341,28.125,23.711340206185564,75.0,88.5954381752701,11.11111111111111,81.25,18.91891891891892,63.888888888888886,28.57142857142857,18.75,40.0,0.0
33.33333333333333,44.66019417475729,29.166666666666668,22.429906542056074,75.0,88.68904876099121,16.666666666666664,81.88405797101449,17.391304347826086,60.0,0.0,7.4074074074074066,0.0,0.0
33.33333333333333,47.47774480712167,38.46153846153847,25.454545454545453,50.0,89.52265372168284,0.0,83.78378378378379,18.51851851851852,59.49367088607595,23.076923076923077,24.0,20.0,0.0
33.33333333333333,47.15719063545151,30.0,32.35294117647059,33.33333333333333,87.89432176656152,0.0,81.52610441767068,14.285714285714285,49.275362318840585,0.0,16.9811320754717,14.285714285714285,0.0
33.33333333333333,47.38461538461539,24.528301886792452,30.18867924528302,28.57142857142857,88.70241506344658,25.0,85.27131782945736,12.195121951219512,52.77777777777778,12.5,17.1875,20.0,0.0
0.0,43.82716049382716,35.483870967741936,23.157894736842106,44.44444444444444,87.56497401039584,0.0,84.03041825095056,14.705882352941178,56.75675675675676,9.090909090909092,14.285714285714285,20.0,22.22222222222222
0.0,44.606413994169095,29.629629629629626,28.971962616822427,66.66666666666666,87.94840790004031,11.11111111111111,81.2274368231047,4.166666666666666,52.38095238095239,50.0,16.071428571428573,50.0,0.0
0.0,50.0,28.125,28.125,60.0,88.11881188118812,0.0,85.31746031746032,12.121212121212121,57.14285714285714,28.57142857142857,19.607843137254903,33.33333333333333,0.0
0.0,46.22950819672131,47.368421052631575,21.428571428571427,50.0,87.81746031746032,30.0,79.06137184115524,17.77777777777778,46.666666666666664,14.285714285714285,14.285714285714285,33.33333333333333,14.285714285714285
0.0,46.08433734939759,28.125,27.77777777777778,50.0,89.22448979591837,8.333333333333332,81.29496402877699,15.789473684210526,50.0,7.6923076923076925,14.864864864864865,28.57142857142857,0.0
25.0,48.69565217391305,40.0,32.17391304347826,37.5,88.77509217533797,0.0,83.96946564885496,17.857142857142858,35.80246913580247,9.090909090909092,14.516129032258066,0.0,0.0
25.0,50.160771704180064,34.285714285714285,28.865979381443296,50.0,88.86208283071974,12.5,85.76779026217228,9.523809523809524,48.78048780487805,25.0,13.846153846153847,25.0,11.11111111111111
50.0,45.507246376811594,18.75,26.21359223300971,25.0,87.9261933413558,0.0,82.28346456692913,14.285714285714285,49.25373134328358,75.0,21.73913043478261,25.0,12.5
0.0,50.814332247557005,25.0,23.958333333333336,55.55555555555556,88.02371541501977,0.0,85.60606060606061,13.793103448275861,57.14285714285714,14.285714285714285,20.454545454545457,14.285714285714285,0.0
0.0,47.57281553398058,34.78260869565217,18.26086956521739,28.57142857142857,88.22820409803134,0.0,86.53846153846155,16.666666666666664,51.89873417721519,22.22222222222222,19.298245614035086,22.22222222222222,0.0
50.0,47.194719471947195,31.57894736842105,19.82758620689655,37.5,88.19055244195356,0.0,78.75457875457876,20.0,49.39759036144578,12.5,26.666666666666668,16.666666666666664,0.0
100.0,50.83056478405316,37.5,20.18348623853211,50.0,88.33069620253164,11.11111111111111,79.36507936507937,18.181818181818183,50.0,25.0,18.0327868852459,33.33333333333333,0.0
100.0,49.354838709677416,46.666666666666664,28.000000000000004,50.0,87.65334388603087,9.090909090909092,80.84291187739464,15.789473684210526,41.333333333333336,37.5,14.893617021276595,33.33333333333333,0.0
0.0,49.49832775919732,47.82608695652174,26.47058823529412,50.0,87.95418641390206,11.11111111111111,77.12177121771218,17.647058823529413,57.14285714285714,12.5,13.333333333333334,60.0,0.0
,47.48427672955975,37.93103448275862,22.689075630252102,33.33333333333333,88.67313915857605,0.0,82.5278810408922,19.047619047619047,52.5,28.57142857142857,14.545454545454545,37.5,12.5
0.0,49.122807017543856,37.93103448275862,27.173913043478258,22.22222222222222,89.51189995966115,0.0,82.70676691729322,10.526315789473683,60.91954022988506,7.6923076923076925,9.75609756097561,28.57142857142857,0.0
25.0,46.20060790273556,21.62162162162162,26.47058823529412,100.0,88.4180790960452,0.0,84.0909090909091,20.0,42.42424242424242,20.0,18.333333333333332,7.6923076923076925,0.0
50.0,50.159744408945684,33.33333333333333,27.0,100.0,88.38042180660565,14.285714285714285,78.94736842105263,6.666666666666667,52.0,25.0,20.754716981132077,0.0,0.0
25.0,47.69736842105263,34.61538461538461,32.11009174311927,57.14285714285714,88.2636655948553,11.11111111111111,84.50184501845018,16.666666666666664,47.368421052631575,11.11111111111111,24.074074074074073,14.285714285714285,14.285714285714285
100.0,52.03761755485894,22.5,27.722772277227726,50.0,88.15165876777252,0.0,82.15767634854771,13.793103448275861,63.76811594202898,0.0,17.142857142857142,40.0,0.0
0.0,41.61849710982659,34.48275862068966,20.689655172413794,80.0,87.64587525150905,0.0,78.62595419847328,18.181818181818183,47.12643678160919,16.666666666666664,27.083333333333332,0.0,0.0
0.0,47.774480712166174,23.684210526315788,24.786324786324787,25.0,89.37981353871098,8.333333333333332,79.92424242424242,16.129032258064516,67.74193548387096,7.142857142857142,23.809523809523807,25.0,0.0
40.0,50.62893081761006,31.428571428571427,21.21212121212121,37.5,88.37489943684635,7.6923076923076925,81.04089219330855,6.25,49.31506849315068,16.666666666666664,25.0,28.57142857142857,0.0
0.0,45.25316455696203,28.205128205128204,27.500000000000004,42.857142857142854,88.24717285945073,10.0,84.92063492063492,8.51063829787234,49.29577464788733,0.0,9.615384615384617,0.0,25.0
33.33333333333333,47.878787878787875,34.48275862068966,24.778761061946902,12.5,88.29268292682927,0.0,80.0,8.571428571428571,43.24324324324324,0.0,13.559322033898304,0.0,0.0
0.0,45.723684210526315,28.125,24.137931034482758,40.0,87.64044943820225,0.0,80.22388059701493,7.142857142857142,44.680851063829785,22.22222222222222,18.181818181818183,25.0,0.0
20.0,48.888888888888886,35.483870967741936,19.469026548672566,60.0,88.714859437751,0.0,80.14981273408239,3.7037037037037033,57.14285714285714,8.333333333333332,8.88888888888889,40.0,11.11111111111111
33.33333333333333,48.05194805194805,26.47058823529412,23.595505617977526,100.0,87.75267538644471,0.0,82.52032520325203,2.4390243902439024,51.24999999999999,33.33333333333333,19.148936170212767,42.857142857142854,0.0
66.66666666666666,44.47852760736196,44.44444444444444,33.663366336633665,12.5,88.51866720192693,0.0,81.25,16.0,52.702702702702695,37.5,17.94871794871795,0.0,50.0
75.0,51.92307692307693,46.15384615384615,27.058823529411764,75.0,88.26328310864393,11.11111111111111,81.29770992366412,8.333333333333332,45.67901234567901,25.0,16.666666666666664,33.33333333333333,0.0
0.0,47.79874213836478,43.47826086956522,21.62162162162162,66.66666666666666,87.78352566653402,7.6923076923076925,82.72058823529412,14.285714285714285,53.44827586206896,66.66666666666666,17.073170731707318,50.0,20.0
20.0,50.0,26.923076923076923,27.0,57.14285714285714,87.88115715402658,0.0,79.46768060836501,5.263157894736842,53.44827586206896,0.0,23.076923076923077,50.0,0.0
50.0,53.205128205128204,25.925925925925924,23.66412213740458,40.0,89.469420818145,11.11111111111111,77.12177121771218,13.88888888888889,63.49206349206349,0.0,17.391304347826086,14.285714285714285,0.0
14.285714285714285,49.096385542168676,31.428571428571427,25.210084033613445,66.66666666666666,89.24512987012987,11.11111111111111,83.27272727272728,8.333333333333332,52.56410256410257,16.666666666666664,15.0,33.33333333333333,0.0
33.33333333333333,49.57983193277311,33.33333333333333,27.77777777777778,20.0,89.43089430894308,0.0,80.80000000000001,12.121212121212121,47.88732394366197,23.076923076923077,22.22222222222222,0.0,20.0
50.0,48.67256637168141,33.33333333333333,30.37974683544304,40.0,88.20697954271961,0.0,80.14440433212997,9.375,41.891891891891895,33.33333333333333,14.285714285714285,0.0,20.0
0.0,50.0,25.64102564102564,29.72972972972973,50.0,88.30694275274055,0.0,83.89513108614233,10.81081081081081,43.75,33.33333333333333,7.6923076923076925,50.0,20.0
16.666666666666664,48.493975903614455,39.39393939393939,21.951219512195124,25.0,88.03521408563425,0.0,82.46268656716418,4.3478260869565215,53.73134328358209,0.0,14.000000000000002,20.0,0.0
0.0,49.36708860759494,30.303030303030305,27.835051546391753,33.33333333333333,87.8594249201278,0.0,84.79087452471484,6.666666666666667,42.30769230769231,0.0,12.5,33.33333333333333,0.0
25.0,45.39877300613497,31.428571428571427,29.03225806451613,16.666666666666664,88.05309734513274,11.11111111111111,81.60919540229885,17.647058823529413,50.66666666666667,15.384615384615385,14.000000000000002,60.0,0.0
33.33333333333333,49.83818770226537,27.77777777777778,27.884615384615387,20.0,89.17835671342685,0.0,83.71212121212122,25.0,70.1492537313433,13.333333333333334,14.583333333333334,12.5,0.0
0.0,48.90282131661442,30.76923076923077,25.510204081632654,66.66666666666666,88.20697954271961,6.25,85.14056224899599,13.88888888888889,60.0,14.285714285714285,22.0,9.090909090909092,28.57142857142857
16.666666666666664,48.0,34.21052631578947,25.225225225225223,25.0,87.46006389776358,0.0,76.40449438202246,4.0,51.5625,20.0,18.421052631578945,30.0,0.0
40.0,45.21739130434783,35.0,26.804123711340207,33.33333333333333,88.70967741935483,12.5,83.3976833976834,10.0,64.38356164383562,14.285714285714285,20.689655172413794,22.22222222222222,0.0
0.0,42.443729903536976,35.0,27.11864406779661,33.33333333333333,87.88244766505636,7.6923076923076925,77.9783393501805,10.0,48.10126582278481,0.0,20.833333333333336,20.0,
12.5,45.48022598870056,23.076923076923077,18.29268292682927,44.44444444444444,88.70124648170487,0.0,77.94117647058823,7.4074074074074066,65.75342465753424,0.0,16.666666666666664,0.0,0.0
25.0,50.79365079365079,31.25,20.689655172413794,100.0,88.47227762265656,7.142857142857142,74.26470588235294,5.263157894736842,55.55555555555556,0.0,20.833333333333336,16.666666666666664,0.0
0.0,44.0625,21.428571428571427,20.754716981132077,25.0,88.44924060751399,9.090909090909092,84.35114503816794,19.047619047619047,51.24999999999999,25.0,12.5,33.33333333333333,
0.0,43.90243902439025,52.38095238095239,27.184466019417474,0.0,87.71084337349397,6.25,83.01158301158301,6.521739130434782,47.22222222222222,12.5,18.181818181818183,40.0,0.0
0.0,47.4025974025974,30.0,29.245283018867923,22.22222222222222,87.24591470705461,0.0,81.56862745098039,4.878048780487805,51.35135135135135,42.857142857142854,15.686274509803921,50.0,0.0
0.0,48.75776397515528,45.0,23.364485981308412,14.285714285714285,88.82163034705408,0.0,84.13284132841329,3.225806451612903,56.52173913043478,12.5,18.181818181818183,33.33333333333333,0.0
0.0,45.06172839506173,32.25806451612903,27.27272727272727,66.66666666666666,87.67395626242545,0.0,83.984375,6.451612903225806,44.776119402985074,11.11111111111111,16.27906976744186,0.0,14.285714285714285
42.857142857142854,51.34228187919463,30.303030303030305,25.274725274725274,36.36363636363637,88.13091482649841,11.11111111111111,84.25196850393701,0.0,53.03030303030303,16.666666666666664,24.0,50.0,0.0
0.0,50.16611295681063,34.48275862068966,23.52941176470588,60.0,87.81746031746032,0.0,80.14981273408239,13.793103448275861,53.94736842105263,0.0,12.244897959183673,0.0,0.0
25.0,46.81528662420382,32.432432432432435,20.0,33.33333333333333,88.52525252525253,16.666666666666664,75.34246575342466,12.5,53.42465753424658,25.0,21.568627450980394,20.0,0.0
50.0,47.019867549668874,35.483870967741936,29.245283018867923,50.0,88.07339449541286,6.666666666666667,82.75862068965517,8.333333333333332,42.857142857142854,20.0,15.789473684210526,25.0,0.0
50.0,44.21965317919075,37.03703703703704,24.528301886792452,75.0,87.85197103781175,0.0,81.89300411522635,7.142857142857142,45.0,0.0,14.893617021276595,0.0,0.0
0.0,47.85276073619632,41.66666666666667,29.464285714285715,40.0,88.39285714285714,0.0,76.70250896057348,0.0,36.7816091954023,11.11111111111111,14.583333333333334,25.0,0.0
,44.40789473684211,33.33333333333333,24.0,37.5,88.20717131474105,0.0,82.35294117647058,3.7037037037037033,53.65853658536586,9.090909090909092,16.27906976744186,20.0,0.0
11.11111111111111,47.63406940063091,16.666666666666664,29.347826086956523,66.66666666666666,88.2565130260521,7.6923076923076925,78.32699619771863,8.333333333333332,50.0,23.076923076923077,16.666666666666664,0.0,20.0
50.0,46.45161290322581,41.935483870967744,23.595505617977526,57.14285714285714,87.30538922155688,9.090909090909092,83.39483394833948,7.4074074074074066,51.31578947368421,18.181818181818183,11.538461538461538,40.0,0.0
0.0,47.07792207792208,30.0,24.210526315789473,66.66666666666666,87.74940143655228,0.0,76.86567164179104,13.88888888888889,49.43820224719101,14.285714285714285,22.22222222222222,16.666666666666664,
0.0,41.265060240963855,20.0,20.454545454545457,44.44444444444444,87.81362007168458,0.0,84.10852713178295,13.333333333333334,66.15384615384615,25.0,14.035087719298245,33.33333333333333,14.285714285714285
0.0,46.34920634920635,40.0,26.47058823529412,50.0,88.09996033320111,16.666666666666664,83.96946564885496,8.571428571428571,61.29032258064516,18.181818181818183,25.53191489361702,33.33333333333333,0.0
0.0,46.70846394984326,25.806451612903224,29.411764705882355,50.0,88.47068145800317,0.0,82.74509803921568,17.24137931034483,53.2258064516129,25.0,24.0,16.666666666666664,0.0
0.0,47.00598802395209,42.30769230769231,24.752475247524753,75.0,88.7187751813054,33.33333333333333,81.88679245283019,7.6923076923076925,56.62650602409639,42.857142857142854,17.307692307692307,0.0,10.0
20.0,47.651006711409394,23.076923076923077,22.61904761904762,16.666666666666664,87.37633557578157,0.0,80.91603053435115,7.142857142857142,47.22222222222222,10.0,10.204081632653061,0.0,0.0
0.0,45.426829268292686,20.0,20.689655172413794,0.0,87.80783205490512,0.0,81.85328185328186,2.857142857142857,38.70967741935484,10.0,16.666666666666664,28.57142857142857,40.0
0.0,51.186440677966104,33.33333333333333,20.754716981132077,25.0,88.06207719856745,0.0,84.64566929133859,12.5,47.2972972972973,20.0,9.25925925925926,0.0,0.0
0.0,46.73202614379085,27.586206896551722,22.0,30.76923076923077,88.0656788145775,8.333333333333332,82.65682656826569,14.814814814814813,45.83333333333333,0.0,15.384615384615385,30.0,0.0
33.33333333333333,50.44776119402985,29.629629629629626,22.772277227722775,100.0,88.47077662129705,0.0,84.7328244274809,7.6923076923076925,63.07692307692307,25.0,12.0,40.0,0.0
50.0,41.88034188034188,32.0,26.21359223300971,42.857142857142854,87.72782503037668,0.0,79.08745247148289,9.523809523809524,51.19047619047619,0.0,13.461538461538462,0.0,0.0
0.0,47.1875,35.483870967741936,31.868131868131865,37.5,87.91252485089464,12.5,82.02247191011236,12.5,39.130434782608695,42.857142857142854,14.285714285714285,0.0,7.142857142857142
20.0,48.60681114551084,13.043478260869565,23.076923076923077,66.66666666666666,87.66362554541848,0.0,82.52032520325203,6.896551724137931,49.31506849315068,0.0,14.035087719298245,20.0,25.0
50.0,48.318042813455655,33.33333333333333,27.049180327868854,36.36363636363637,87.63955342902712,0.0,80.15873015873017,10.0,54.09836065573771,20.0,17.5,25.0,0.0
28.57142857142857,51.33333333333333,33.33333333333333,23.275862068965516,33.33333333333333,88.29404714342789,0.0,80.68181818181817,13.793103448275861,52.63157894736842,14.285714285714285,11.11111111111111,25.0,33.33333333333333
0.0,49.01960784313725,34.146341463414636,24.528301886792452,50.0,88.75763747454175,0.0,79.64285714285714,9.090909090909092,43.037974683544306,10.0,23.333333333333332,14.285714285714285,14.285714285714285
50.0,47.80058651026393,32.0,27.058823529411764,60.0,88.75953432356484,10.0,81.99233716475096,11.428571428571429,52.38095238095239,16.666666666666664,19.607843137254903,0.0,0.0
0.0,45.25993883792049,23.076923076923077,27.848101265822784,42.857142857142854,88.46611177170035,12.5,78.54545454545455,16.666666666666664,45.07042253521127,16.666666666666664,17.02127659574468,50.0,0.0
12.5,44.984802431610944,39.130434782608695,25.961538461538463,60.0,88.18108974358975,14.285714285714285,83.14606741573034,9.090909090909092,54.285714285714285,0.0,17.77777777777778,20.0,16.666666666666664
40.0,45.93023255813954,20.689655172413794,25.40983606557377,66.66666666666666,88.35030549898167,0.0,82.99595141700405,10.0,48.35164835164835,25.0,10.869565217391305,20.0,0.0
16.666666666666664,49.18032786885246,47.05882352941176,37.5,0.0,89.90267639902676,0.0,81.95488721804512,23.333333333333332,62.121212121212125,50.0,15.217391304347828,50.0,20.0
25.0,49.0625,21.875,20.43010752688172,57.14285714285714,88.44140153040676,5.88235294117647,82.57575757575758,6.896551724137931,50.81967213114754,0.0,18.30985915492958,11.11111111111111,0.0
0.0,51.09717868338558,43.47826086956522,26.126126126126124,50.0,89.03614457831324,0.0,81.67938931297711,16.666666666666664,58.82352941176471,36.36363636363637,11.538461538461538,0.0,20.0
,50.0,26.666666666666668,29.411764705882355,44.44444444444444,86.91848906560637,0.0,81.56862745098039,3.125,35.22727272727273,6.666666666666667,17.02127659574468,33.33333333333333,25.0
0.0,49.079754601226995,34.48275862068966,25.71428571428571,42.857142857142854,88.7906789875452,22.22222222222222,79.44664031620553,23.076923076923077,52.0,8.333333333333332,9.090909090909092,14.285714285714285,0.0
0.0,49.8567335243553,36.0,33.00970873786408,60.0,89.36170212765957,0.0,85.36585365853658,13.636363636363635,49.411764705882355,14.285714285714285,27.27272727272727,0.0,0.0
14.285714285714285,47.256097560975604,40.625,25.233644859813083,44.44444444444444,88.2569558101473,11.11111111111111,79.24528301886792,14.285714285714285,38.20224719101123,25.0,21.568627450980394,25.0,0.0
50.0,44.81707317073171,39.39393939393939,26.0,16.666666666666664,87.73547094188376,16.666666666666664,81.88976377952756,16.666666666666664,44.61538461538462,6.666666666666667,17.391304347826086,9.090909090909092,0.0
0.0,48.275862068965516,26.666666666666668,29.629629629629626,0.0,88.69356771873753,0.0,84.4106463878327,20.0,42.465753424657535,25.0,25.49019607843137,20.0,0.0
25.0,45.65826330532213,26.47058823529412,31.63265306122449,60.0,88.31851253031527,11.11111111111111,81.85328185328186,18.75,55.714285714285715,20.0,22.22222222222222,33.33333333333333,14.285714285714285
50.0,45.50898203592814,41.935483870967744,24.561403508771928,0.0,89.21009771986971,0.0,84.58646616541353,8.823529411764707,48.05194805194805,0.0,13.793103448275861,25.0,8.333333333333332
0.0,46.98795180722892,32.142857142857146,24.719101123595504,100.0,87.97443068318019,0.0,80.84291187739464,6.25,49.382716049382715,25.0,17.5,25.0,0.0
25.0,44.164037854889585,26.923076923076923,21.73913043478261,83.33333333333334,87.96780684104628,28.57142857142857,81.08108108108108,20.0,55.55555555555556,0.0,15.254237288135593,0.0,16.666666666666664
0.0,44.44444444444444,36.11111111111111,24.166666666666668,80.0,87.96931772305207,23.076923076923077,79.6934865900383,18.91891891891892,56.060606060606055,10.0,12.5,25.0,16.666666666666664
20.0,49.107142857142854,14.814814814814813,24.528301886792452,0.0,88.51866720192693,14.285714285714285,85.65737051792829,30.0,40.74074074074074,25.0,16.9811320754717,42.857142857142854,0.0
33.33333333333333,45.0,29.629629629629626,28.31858407079646,50.0,88.18993506493507,0.0,84.10852713178295,8.108108108108109,55.55555555555556,0.0,20.0,37.5,0.0
0.0,49.69512195121951,35.294117647058826,31.914893617021278,42.857142857142854,88.2258710452543,0.0,81.0077519379845,13.636363636363635,45.714285714285715,27.27272727272727,15.0,0.0,0.0
12.5,46.42857142857143,31.428571428571427,28.125,75.0,87.9415347137637,0.0,77.3851590106007,7.4074074074074066,52.702702702702695,0.0,19.51219512195122,25.0,0.0
0.0,47.35294117647059,10.714285714285714,28.57142857142857,50.0,88.27780008028904,0.0,81.85328185328186,3.4482758620689653,54.41176470588235,12.5,19.35483870967742,10.0,0.0
0.0,48.484848484848484,36.84210526315789,27.55102040816326,33.33333333333333,88.43537414965986,0.0,80.82706766917293,14.814814814814813,50.0,0.0,15.625,33.33333333333333,20.0
0.0,45.9375,33.33333333333333,26.666666666666668,33.33333333333333,87.9951980792317,0.0,81.88679245283019,6.0606060606060606,56.060606060606055,11.11111111111111,26.82926829268293,16.666666666666664,0.0
50.0,50.159744408945684,26.666666666666668,28.448275862068968,100.0,88.77755511022045,25.0,84.75836431226766,18.51851851851852,41.9753086419753,28.57142857142857,13.157894736842104,12.5,0.0
33.33333333333333,47.385620915032675,22.857142857142858,31.386861313868614,75.0,88.7812752219532,0.0,87.85425101214574,25.0,48.717948717948715,0.0,12.76595744680851,16.666666666666664,0.0
0.0,46.93251533742331,25.71428571428571,26.041666666666668,40.0,89.17505030181087,6.666666666666667,83.83458646616542,33.33333333333333,55.294117647058826,25.0,18.333333333333332,0.0,50.0
0.0,51.19453924914675,21.21212121212121,22.641509433962266,28.57142857142857,88.60455817672931,0.0,80.3088803088803,12.121212121212121,52.63157894736842,0.0,22.033898305084744,60.0,20.0
0.0,47.4025974025974,40.74074074074074,24.299065420560748,28.57142857142857,88.13962713209044,0.0,80.078125,12.5,56.896551724137936,20.0,22.448979591836736,0.0,28.57142857142857
20.0,43.9344262295082,44.44444444444444,22.54901960784314,33.33333333333333,87.63823064770932,0.0,83.2089552238806,11.11111111111111,56.060606060606055,10.0,14.000000000000002,50.0,0.0
0.0,48.91640866873065,28.000000000000004,26.804123711340207,75.0,88.1952781112445,15.384615384615385,82.17054263565892,6.451612903225806,51.89873417721519,12.5,13.725490196078432,33.33333333333333,0.0
25.0,50.14925373134328,33.33333333333333,18.0,50.0,89.15759774284562,7.142857142857142,82.18181818181817,18.75,55.4054054054054,25.0,20.0,16.666666666666664,14.285714285714285
0.0,46.70846394984326,39.130434782608695,25.806451612903224,50.0,88.42611133360032,0.0,77.15355805243446,5.555555555555555,53.94736842105263,50.0,16.0,20.0,14.285714285714285
20.0,46.64536741214057,28.125,16.101694915254235,33.33333333333333,88.23293172690762,0.0,79.38931297709924,3.571428571428571,51.515151515151516,28.57142857142857,18.0,20.0,16.666666666666664
0.0,50.0,48.0,24.175824175824175,50.0,87.98434442270059,8.333333333333332,83.52941176470588,17.647058823529413,46.55172413793103,22.22222222222222,17.02127659574468,0.0,0.0
25.0,45.07936507936508,33.33333333333333,23.14814814814815,71.42857142857143,88.58870967741936,11.76470588235294,82.8996282527881,9.375,42.028985507246375,18.181818181818183,24.193548387096776,25.0,33.33333333333333
33.33333333333333,55.51724137931034,53.84615384615385,22.093023255813954,40.0,87.8775990584543,25.0,85.93155893536122,12.903225806451612,42.857142857142854,0.0,9.803921568627452,50.0,0.0
0.0,47.94117647058824,34.61538461538461,25.24271844660194,60.0,88.10679611650485,11.11111111111111,84.2911877394636,9.523809523809524,46.3768115942029,10.0,22.448979591836736,28.57142857142857,0.0
40.0,48.50299401197605,30.434782608695656,19.0,50.0,88.19500402900886,0.0,82.08955223880598,16.666666666666664,50.68493150684932,0.0,14.545454545454545,22.22222222222222,0.0
0.0,43.63057324840764,18.51851851851852,27.358490566037734,100.0,88.47852268165396,0.0,83.01158301158301,3.7037037037037033,52.5,17.647058823529413,14.285714285714285,20.0,0.0
0.0,38.02395209580838,32.142857142857146,27.82608695652174,40.0,87.68793173506705,0.0,82.87937743190662,13.157894736842104,45.94594594594595,18.181818181818183,18.0,8.333333333333332,0.0
0.0,50.9493670886076,41.66666666666667,21.34831460674157,28.57142857142857,88.25169255276782,9.090909090909092,78.75457875457876,9.523809523809524,48.148148148148145,0.0,16.363636363636363,,0.0
0.0,47.74193548387097,19.35483870967742,26.666666666666668,66.66666666666666,88.14308681672026,11.11111111111111,80.0,9.090909090909092,57.333333333333336,10.0,17.142857142857142,20.0,0.0
50.0,45.56574923547401,36.666666666666664,21.875,40.0,88.38606327593112,0.0,84.01639344262296,11.538461538461538,51.68539325842697,28.57142857142857,16.417910447761194,37.5,
25.0,47.35202492211838,36.36363636363637,22.429906542056074,0.0,88.29617834394905,10.0,85.28138528138528,14.705882352941178,56.00000000000001,0.0,24.489795918367346,23.076923076923077,0.0
40.0,47.54601226993865,23.684210526315788,25.225225225225223,25.0,88.06749698674167,0.0,79.51807228915662,12.0,45.20547945205479,16.666666666666664,16.0,0.0,0.0
0.0,48.534201954397396,25.71428571428571,29.88505747126437,25.0,88.37395125848981,0.0,79.63636363636364,14.814814814814813,50.0,50.0,21.818181818181817,33.33333333333333,20.0
33.33333333333333,46.62162162162162,18.181818181818183,26.666666666666668,50.0,87.10567823343848,0.0,79.77099236641222,7.6923076923076925,47.05882352941176,11.11111111111111,22.0,0.0,0.0
,44.89795918367347,37.142857142857146,24.489795918367346,0.0,88.7713588283157,0.0,80.97014925373134,13.513513513513514,50.0,12.5,16.3265306122449,25.0,11.11111111111111
40.0,48.064516129032256,18.51851851851852,26.168224299065418,40.0,88.37579617834395,33.33333333333333,84.43579766536965,6.451612903225806,57.14285714285714,27.27272727272727,26.923076923076923,25.0,0.0
0.0,46.601941747572816,38.095238095238095,25.0,37.5,88.45385537355173,11.11111111111111,85.93155893536122,14.285714285714285,42.168674698795186,28.57142857142857,16.363636363636363,50.0,0.0
0.0,46.666666666666664,28.57142857142857,24.561403508771928,36.36363636363637,88.50994721883882,0.0,83.33333333333334,12.121212121212121,53.84615384615385,25.0,18.367346938775512,25.0,0.0
20.0,47.023809523809526,44.0,30.0,42.857142857142854,88.17460317460318,40.0,85.52631578947368,17.391304347826086,53.42465753424658,33.33333333333333,15.942028985507244,16.666666666666664,8.333333333333332
0.0,47.96511627906977,25.0,16.091954022988507,57.14285714285714,87.69352917824533,14.285714285714285,85.2,9.375,50.0,14.285714285714285,8.88888888888889,38.46153846153847,0.0
20.0,52.96296296296297,30.0,30.0,50.0,87.6814437034131,0.0,78.90625,16.666666666666664,47.82608695652174,33.33333333333333,19.642857142857142,0.0,25.0
,48.333333333333336,27.27272727272727,28.82882882882883,40.0,88.05675995270003,0.0,85.60311284046692,13.636363636363635,59.09090909090909,0.0,19.148936170212767,50.0,0.0
14.285714285714285,50.0,22.727272727272727,27.659574468085108,100.0,87.76978417266187,11.11111111111111,81.06060606060606,7.142857142857142,50.0,11.11111111111111,16.666666666666664,14.285714285714285,0.0
33.33333333333333,51.38461538461539,33.33333333333333,24.770642201834864,33.33333333333333,88.50342880193627,0.0,79.61538461538461,11.76470588235294,44.5945945945946,25.0,18.51851851851852,16.666666666666664,0.0
16.666666666666664,47.96238244514107,31.03448275862069,28.971962616822427,60.0,88.29659318637275,0.0,76.10294117647058,11.11111111111111,60.0,11.11111111111111,19.230769230769234,0.0,16.666666666666664
40.0,48.70967741935484,28.125,17.708333333333336,66.66666666666666,87.66519823788546,18.181818181818183,81.52173913043478,11.11111111111111,48.61111111111111,0.0,7.6923076923076925,0.0,0.0
50.0,49.84615384615385,43.333333333333336,25.510204081632654,100.0,87.85828025477707,0.0,82.23938223938224,21.428571428571427,47.14285714285714,28.57142857142857,14.285714285714285,0.0,33.33333333333333
0.0,47.368421052631575,40.0,26.984126984126984,33.33333333333333,88.36653386454184,0.0,85.65891472868216,20.689655172413794,50.70422535211267,0.0,19.607843137254903,50.0,0.0
0.0,45.151515151515156,29.268292682926827,26.47058823529412,100.0,87.76252019386106,0.0,79.76653696498055,3.225806451612903,51.19047619047619,12.5,21.73913043478261,18.181818181818183,0.0
16.666666666666664,51.98776758409785,28.125,30.136986301369863,37.5,88.9738430583501,0.0,85.44061302681992,8.695652173913043,46.236559139784944,0.0,13.461538461538462,25.0,33.33333333333333
0.0,44.927536231884055,26.923076923076923,34.44444444444444,57.14285714285714,88.78617363344051,0.0,84.15094339622642,16.0,56.81818181818182,66.66666666666666,17.5,10.0,0.0
33.33333333333333,46.40718562874252,25.0,28.57142857142857,33.33333333333333,87.86311181854357,0.0,88.09523809523809,10.344827586206897,46.75324675324675,13.333333333333334,12.82051282051282,20.0,16.666666666666664
20.0,47.55043227665706,25.0,23.157894736842106,50.0,88.45843422114609,36.36363636363637,82.14285714285714,3.8461538461538463,53.94736842105263,33.33333333333333,24.0,0.0,40.0
33.33333333333333,46.540880503144656,17.24137931034483,31.775700934579437,66.66666666666666,87.76892430278885,0.0,77.22007722007721,6.451612903225806,51.35135135135135,0.0,23.404255319148938,50.0,10.0
50.0,50.47923322683706,25.0,29.591836734693878,60.0,87.93713163064834,18.181818181818183,81.81818181818183,9.090909090909092,54.54545454545454,0.0,15.384615384615385,57.14285714285714,0.0
50.0,51.624548736462096,45.83333333333333,32.95454545454545,25.0,88.19581523884722,0.0,83.7037037037037,9.375,46.06741573033708,14.285714285714285,16.071428571428573,20.0,0.0
100.0,47.368421052631575,51.515151515151516,22.105263157894736,66.66666666666666,88.30757035275467,0.0,81.74904942965779,11.538461538461538,52.5,25.0,14.583333333333334,66.66666666666666,0.0
0.0,47.43589743589743,30.0,39.175257731958766,50.0,88.0015891934843,0.0,81.46718146718148,15.384615384615385,63.1578947368421,0.0,14.583333333333334,20.0,0.0
0.0,48.75,36.36363636363637,24.509803921568626,40.0,88.05970149253731,0.0,80.59701492537313,6.666666666666667,45.714285714285715,20.0,10.714285714285714,40.0,0.0
20.0,49.050632911392405,26.666666666666668,25.806451612903224,80.0,88.74700718276138,7.6923076923076925,82.03125,4.3478260869565215,50.0,40.0,7.6923076923076925,0.0,0.0
0.0,44.15204678362573,37.03703703703704,28.28282828282828,57.14285714285714,88.31587429492345,16.666666666666664,81.64794007490637,15.0,45.23809523809524,25.0,27.450980392156865,25.0,0.0
0.0,44.339622641509436,45.45454545454545,25.24271844660194,60.0,88.07920792079209,20.0,83.5249042145594,10.0,63.33333333333333,8.333333333333332,17.02127659574468,33.33333333333333,0.0
0.0,51.15511551155115,34.375,15.384615384615385,50.0,88.61723446893788,12.5,81.0077519379845,13.333333333333334,48.64864864864865,12.5,11.666666666666666,33.33333333333333,0.0
33.33333333333333,48.170731707317074,24.242424242424242,26.08695652173913,100.0,88.54501607717042,33.33333333333333,75.47169811320755,9.67741935483871,50.70422535211267,33.33333333333333,11.11111111111111,50.0,0.0
0.0,46.017699115044245,22.22222222222222,28.888888888888886,100.0,88.59790491539081,0.0,86.38132295719845,18.51851851851852,47.61904761904761,14.285714285714285,22.641509433962266,20.0,0.0
14.285714285714285,46.8944099378882,29.03225806451613,26.923076923076923,100.0,88.50944154278827,0.0,76.44927536231883,3.8461538461538463,58.9041095890411,16.666666666666664,10.638297872340425,16.666666666666664,12.5
50.0,46.5625,34.375,23.0,50.0,88.4126984126984,0.0,83.26693227091634,27.27272727272727,55.55555555555556,20.0,19.565217391304348,33.33333333333333,33.33333333333333
100.0,45.60260586319218,36.36363636363637,25.0,50.0,87.26340694006309,33.33333333333333,83.77358490566039,12.121212121212121,53.2258064516129,16.666666666666664,17.391304347826086,0.0,0.0
0.0,47.21311475409836,29.03225806451613,23.52941176470588,37.5,88.27531012404962,0.0,83.2089552238806,11.538461538461538,44.18604651162791,9.090909090909092,14.285714285714285,10.0,0.0
66.66666666666666,46.546546546546544,31.25,17.894736842105264,40.0,87.67942583732058,0.0,78.17460317460318,28.000000000000004,50.0,16.666666666666664,25.49019607843137,0.0,0.0
12.5,44.904458598726116,25.0,26.744186046511626,27.27272727272727,88.27780008028904,0.0,79.04411764705883,28.000000000000004,41.30434782608695,16.666666666666664,10.416666666666668,0.0,33.33333333333333
40.0,48.26498422712934,31.03448275862069,18.333333333333332,33.33333333333333,88.01438274071116,0.0,83.46153846153847,3.0303030303030303,53.52112676056338,28.57142857142857,11.428571428571429,0.0,0.0
0.0,47.79874213836478,16.666666666666664,33.33333333333333,50.0,88.20224719101124,25.0,81.56862745098039,16.666666666666664,53.76344086021505,25.0,17.857142857142858,25.0,7.6923076923076925
0.0,45.45454545454545,21.62162162162162,26.53061224489796,40.0,88.51540616246498,10.0,79.1970802919708,4.166666666666666,47.43589743589743,33.33333333333333,16.666666666666664,0.0,10.0
0.0,48.91640866873065,33.33333333333333,22.093023255813954,50.0,88.32607835377918,10.0,88.06584362139918,0.0,51.31578947368421,18.181818181818183,15.384615384615385,14.285714285714285,0.0
16.666666666666664,49.544072948328264,10.0,17.431192660550458,50.0,88.2520325203252,0.0,81.78137651821862,9.67741935483871,51.13636363636363,9.090909090909092,12.903225806451612,12.5,0.0
0.0,52.159468438538205,27.586206896551722,21.21212121212121,75.0,88.00475059382423,0.0,80.82706766917293,14.285714285714285,48.05194805194805,0.0,18.91891891891892,0.0,0.0
0.0,47.752808988764045,44.0,30.097087378640776,50.0,89.57403651115618,0.0,81.74904942965779,15.151515151515152,51.388888888888886,0.0,23.52941176470588,28.57142857142857,0.0
33.33333333333333,45.18950437317784,25.71428571428571,28.000000000000004,0.0,88.30694275274055,0.0,84.88372093023256,9.090909090909092,47.5609756097561,12.5,8.88888888888889,0.0,0.0
16.666666666666664,47.091412742382275,30.76923076923077,23.170731707317074,100.0,88.00322061191626,7.6923076923076925,87.25868725868726,0.0,58.9041095890411,16.666666666666664,17.307692307692307,28.57142857142857,0.0
0.0,49.22118380062305,30.76923076923077,30.952380952380953,37.5,88.0561122244489,0.0,85.3061224489796,9.375,36.04651162790697,11.11111111111111,19.444444444444446,33.33333333333333,0.0
0.0,46.64536741214057,48.38709677419355,21.818181818181817,40.0,88.15471394037067,11.11111111111111,79.62264150943396,5.88235294117647,48.148148148148145,10.0,14.634146341463413,33.33333333333333,9.090909090909092
11.11111111111111,46.27831715210356,33.33333333333333,26.126126126126124,60.0,88.2092555331992,0.0,77.34375,10.0,53.333333333333336,20.0,16.666666666666664,0.0,0.0
100.0,47.633136094674555,29.03225806451613,33.734939759036145,25.0,88.59300476947536,0.0,86.64122137404581,19.230769230769234,51.42857142857142,16.666666666666664,9.615384615384617,50.0,0.0
20.0,47.0414201183432,28.57142857142857,17.75700934579439,40.0,88.91575977428457,12.5,80.6083650190114,18.75,60.29411764705882,25.0,16.666666666666664,0.0,0.0
0.0,46.855345911949684,34.375,27.82608695652174,66.66666666666666,87.90064102564102,0.0,84.36213991769547,5.714285714285714,52.702702702702695,28.57142857142857,19.047619047619047,25.0,0.0
33.33333333333333,47.839506172839506,34.48275862068966,25.71428571428571,57.14285714285714,88.70902468636179,0.0,80.0,18.75,50.588235294117645,12.5,17.073170731707318,40.0,15.384615384615385
,47.11538461538461,28.57142857142857,35.41666666666667,25.0,87.62845849802372,0.0,78.3882783882784,15.384615384615385,40.57971014492754,16.666666666666664,12.244897959183673,0.0,0.0
50.0,49.2063492063492,33.33333333333333,23.387096774193548,20.0,88.67469879518072,8.333333333333332,82.44274809160305,12.903225806451612,47.2972972972973,0.0,20.833333333333336,20.0,0.0
0.0,49.244712990936556,33.33333333333333,25.0,20.0,88.12351543942994,25.0,89.83739837398373,10.0,50.74626865671642,33.33333333333333,15.384615384615385,10.0,20.0
50.0,44.479495268138805,37.5,28.155339805825243,42.857142857142854,87.22133757961782,6.666666666666667,82.57575757575758,10.0,50.0,16.666666666666664,22.857142857142858,20.0,0.0
33.33333333333333,50.82508250825083,25.71428571428571,17.431192660550458,33.33333333333333,87.91732909379968,0.0,81.3953488372093,6.521739130434782,63.49206349206349,33.33333333333333,4.25531914893617,0.0,0.0
20.0,41.98250728862974,29.411764705882355,26.804123711340207,42.857142857142854,87.66181229773463,0.0,84.23076923076923,6.896551724137931,48.0,20.0,9.090909090909092,40.0,11.11111111111111
50.0,51.03448275862069,19.047619047619047,25.961538461538463,50.0,88.20269200316706,0.0,87.14859437751004,19.047619047619047,50.0,25.0,16.176470588235293,0.0,0.0
14.285714285714285,47.687861271676304,20.689655172413794,26.01626016260163,37.5,88.29701372074254,0.0,84.29752066115702,20.0,52.112676056338024,16.666666666666664,12.244897959183673,50.0,0.0
33.33333333333333,43.93939393939394,27.500000000000004,24.324324324324326,60.0,88.47389558232932,0.0,85.54216867469879,10.714285714285714,66.66666666666666,15.384615384615385,8.333333333333332,0.0,0.0
33.33333333333333,49.52681388012618,31.25,25.49019607843137,66.66666666666666,88.62540192926045,5.263157894736842,81.22605363984674,15.0,55.714285714285715,12.5,16.417910447761194,0.0,0.0
0.0,44.44444444444444,35.294117647058826,29.310344827586203,0.0,87.97141722905914,10.0,85.53191489361703,7.6923076923076925,51.94805194805194,0.0,15.217391304347828,20.0,0.0
0.0,46.76923076923077,31.25,27.0,50.0,88.50160256410257,14.285714285714285,81.02766798418972,14.285714285714285,50.0,14.285714285714285,19.402985074626866,0.0,0.0
50.0,48.297213622291025,32.35294117647059,27.0,12.5,87.59503801520609,21.428571428571427,83.79446640316206,18.75,47.76119402985074,14.285714285714285,12.5,33.33333333333333,25.0
25.0,48.310810810810814,25.49019607843137,23.931623931623932,60.0,88.54748603351955,10.0,85.2,13.636363636363635,54.21686746987952,0.0,18.75,25.0,0.0
50.0,46.644295302013425,25.0,26.923076923076923,100.0,86.95481335952849,12.5,82.0,8.333333333333332,70.0,0.0,14.000000000000002,25.0,0.0
25.0,50.142450142450144,25.0,26.495726495726498,50.0,88.55881172219992,0.0,79.75708502024291,15.0,48.57142857142857,16.666666666666664,17.073170731707318,40.0,14.285714285714285
25.0,50.15197568389058,33.33333333333333,29.411764705882355,100.0,88.37859424920129,12.5,83.89830508474576,20.588235294117645,50.0,8.333333333333332,15.909090909090908,0.0,0.0
0.0,50.814332247557005,37.5,37.362637362637365,42.857142857142854,87.54940711462451,22.22222222222222,79.54545454545455,10.0,48.68421052631579,0.0,18.75,33.33333333333333,0.0
0.0,46.07843137254902,32.25806451612903,23.300970873786408,42.857142857142854,87.86081455120602,16.666666666666664,85.9504132231405,13.333333333333334,55.26315789473685,7.6923076923076925,25.581395348837212,14.285714285714285,0.0
,45.98765432098765,40.0,30.851063829787233,28.57142857142857,88.25409508589692,6.25,85.60311284046692,11.11111111111111,50.63291139240506,60.0,26.31578947368421,66.66666666666666,0.0
0.0,48.01223241590214,29.03225806451613,23.484848484848484,30.0,88.93409275834011,0.0,78.41726618705036,19.047619047619047,53.96825396825397,10.0,22.413793103448278,0.0,20.0
0.0,42.857142857142854,27.027027027027028,22.857142857142858,44.44444444444444,88.22810590631364,10.0,84.67432950191571,12.903225806451612,42.35294117647059,25.0,14.000000000000002,25.0,0.0
0.0,47.05882352941176,28.125,15.65217391304348,50.0,88.52657004830918,7.142857142857142,84.52380952380952,10.526315789473683,61.76470588235294,12.5,18.181818181818183,40.0,0.0
0.0,51.19047619047619,26.666666666666668,25.581395348837212,100.0,88.29659318637275,10.0,85.38461538461539,19.35483870967742,51.28205128205128,0.0,19.565217391304348,33.33333333333333,16.666666666666664
25.0,50.29239766081871,28.000000000000004,27.835051546391753,60.0,89.12520064205457,0.0,80.53435114503816,26.08695652173913,56.00000000000001,12.5,14.285714285714285,20.0,0.0
20.0,44.299674267100976,26.923076923076923,21.21212121212121,50.0,87.59968102073366,12.5,80.22813688212928,15.625,54.929577464788736,33.33333333333333,16.071428571428573,14.285714285714285,16.666666666666664
0.0,49.101796407185624,40.909090909090914,26.495726495726498,50.0,88.40112766814337,0.0,81.81818181818183,26.08695652173913,41.42857142857143,10.0,13.20754716981132,0.0,0.0
100.0,46.74556213017752,45.45454545454545,18.69158878504673,75.0,87.92270531400966,11.11111111111111,80.29739776951673,20.0,60.0,12.5,27.27272727272727,8.333333333333332,0.0
0.0,50.50167224080268,32.0,24.731182795698924,40.0,88.39144215530904,10.0,79.08745247148289,13.88888888888889,50.79365079365079,20.0,22.058823529411764,50.0,0.0
20.0,47.896440129449836,25.0,25.892857142857146,40.0,87.74373259052925,0.0,78.62595419847328,4.0,50.72463768115942,37.5,10.638297872340425,14.285714285714285,0.0
33.33333333333333,44.80712166172107,35.714285714285715,21.428571428571427,50.0,87.85084202085004,23.076923076923077,82.08955223880598,7.4074074074074066,45.94594594594595,33.33333333333333,17.77777777777778,0.0,0.0
33.33333333333333,47.781569965870304,42.42424242424242,31.683168316831683,37.5,88.17675159235668,16.666666666666664,84.04669260700389,0.0,47.88732394366197,9.090909090909092,11.864406779661017,22.22222222222222,8.333333333333332
33.33333333333333,44.61077844311377,31.818181818181817,26.36363636363636,36.36363636363637,88.42908798714343,0.0,80.0,11.11111111111111,55.88235294117647,0.0,17.307692307692307,0.0,12.5
0.0,47.90996784565916,20.0,25.510204081632654,50.0,88.76404494382022,11.11111111111111,83.14176245210729,19.35483870967742,55.84415584415584,0.0,20.33898305084746,28.57142857142857,14.285714285714285
50.0,45.04792332268371,36.36363636363637,26.041666666666668,60.0,88.42147435897436,0.0,80.45977011494253,16.0,45.348837209302324,28.57142857142857,20.0,18.181818181818183,10.0
50.0,44.94047619047619,25.925925925925924,28.688524590163933,40.0,87.95326349717969,0.0,83.40080971659918,15.151515151515152,43.58974358974359,0.0,30.0,55.55555555555556,20.0
0.0,46.646341463414636,45.45454545454545,23.0,42.857142857142854,88.83946623534169,0.0,79.3103448275862,17.24137931034483,51.85185185185185,8.333333333333332,18.51851851851852,33.33333333333333,20.0
50.0,46.95121951219512,25.64102564102564,25.842696629213485,50.0,88.34134615384616,11.11111111111111,81.67330677290838,11.11111111111111,60.273972602739725,10.0,12.698412698412698,14.285714285714285,0.0
25.0,48.45679012345679,40.909090909090914,25.49019607843137,60.0,87.74781919111815,10.0,84.67432950191571,16.0,41.7910447761194,16.666666666666664,13.636363636363635,33.33333333333333,0.0
60.0,49.67105263157895,33.33333333333333,29.11392405063291,66.66666666666666,88.01100628930818,0.0,78.65168539325843,7.142857142857142,60.9375,12.5,18.6046511627907,28.57142857142857,25.0
0.0,51.633986928104584,29.03225806451613,25.773195876288657,42.857142857142854,88.62275449101796,30.76923076923077,76.89530685920577,5.555555555555555,46.913580246913575,12.5,13.333333333333334,60.0,0.0
0.0,48.42767295597484,22.58064516129032,27.77777777777778,50.0,87.90771678599842,10.0,83.92156862745098,6.451612903225806,46.478873239436616,25.0,20.0,14.285714285714285,0.0
0.0,47.337278106508876,28.947368421052634,22.115384615384613,40.0,88.61723446893788,0.0,83.85826771653542,16.0,45.714285714285715,16.666666666666664,15.686274509803921,0.0,0.0
11.11111111111111,43.76899696048632,22.22222222222222,24.210526315789473,20.0,88.64908073541167,0.0,84.48979591836735,14.705882352941178,52.702702702702695,27.27272727272727,17.77777777777778,10.0,0.0
33.33333333333333,46.06060606060606,34.375,30.693069306930692,0.0,88.57938718662952,6.666666666666667,80.078125,10.526315789473683,55.73770491803278,23.076923076923077,15.217391304347828,20.0,20.0
0.0,48.231511254019296,39.39393939393939,21.782178217821784,50.0,87.91384124451535,0.0,83.26848249027238,15.384615384615385,46.15384615384615,0.0,16.666666666666664,16.666666666666664,20.0
50.0,51.59235668789809,31.25,27.380952380952383,25.0,88.92871365989646,0.0,86.56126482213439,8.108108108108109,52.80898876404494,12.5,22.448979591836736,0.0,0.0
0.0,43.988269794721404,23.809523809523807,23.14814814814815,50.0,87.58978451715882,0.0,84.64566929133859,16.666666666666664,57.333333333333336,0.0,28.205128205128204,12.5,0.0
25.0,53.70919881305638,25.925925925925924,23.364485981308412,25.0,89.16633105114781,8.333333333333332,86.95652173913044,3.7037037037037033,43.333333333333336,0.0,11.11111111111111,33.33333333333333,0.0
