AB,AFIB,AFL,B,IVR,N,NOD,P,PREX,SBR,SVTA,T,VFL,VT
100.0,81.17647058823529,56.25,53.0,100.0,92.1969696969697,25.0,98.0392156862745,33.33333333333333,80.45977011494253,50.0,58.620689655172406,100.0,100.0
,78.45528455284553,73.33333333333333,66.66666666666666,50.0,91.6854778028593,,99.22178988326849,66.66666666666666,76.66666666666667,100.0,54.166666666666664,100.0,100.0
100.0,82.89473684210526,64.28571428571429,60.86956521739131,100.0,91.54770848985724,0.0,97.31800766283524,75.0,72.63157894736842,100.0,70.0,100.0,100.0
,80.3030303030303,81.81818181818183,64.13043478260869,66.66666666666666,91.74484052532833,50.0,98.80952380952381,66.66666666666666,83.9506172839506,100.0,52.17391304347826,100.0,100.0
100.0,81.27853881278538,70.0,66.30434782608695,100.0,91.04811637448714,0.0,96.93486590038314,50.0,80.23255813953489,100.0,53.125,100.0,100.0
100.0,80.16194331983806,83.33333333333334,59.375,75.0,91.69783096484667,33.33333333333333,98.81422924901186,83.33333333333334,94.44444444444444,100.0,50.0,100.0,
,78.98832684824903,71.42857142857143,60.215053763440864,100.0,92.18573046432617,25.0,96.93486590038314,100.0,84.52380952380952,100.0,66.66666666666666,100.0,100.0
,78.54077253218884,60.0,60.204081632653065,100.0,90.89212392683838,0.0,98.06949806949807,75.0,81.3953488372093,66.66666666666666,52.0,100.0,100.0
,77.18631178707224,66.66666666666666,57.446808510638306,0.0,91.61314695882132,,98.07692307692307,75.0,77.90697674418605,100.0,80.76923076923077,100.0,75.0
100.0,78.50877192982456,50.0,65.21739130434783,66.66666666666666,90.98360655737704,0.0,96.52509652509652,66.66666666666666,77.38095238095238,100.0,58.620689655172406,100.0,100.0
0.0,82.35294117647058,66.66666666666666,78.125,50.0,91.22547204738986,66.66666666666666,98.49056603773585,100.0,83.9506172839506,100.0,70.83333333333334,100.0,100.0
0.0,82.14285714285714,80.0,59.79381443298969,100.0,92.13226909920182,0.0,98.06949806949807,71.42857142857143,66.34615384615384,66.66666666666666,51.61290322580645,100.0,
0.0,83.26530612244898,69.23076923076923,73.41772151898735,75.0,91.95791055993988,20.0,96.66666666666667,100.0,81.60919540229885,100.0,51.85185185185185,100.0,100.0
100.0,82.32931726907631,75.0,57.831325301204814,100.0,91.38059701492537,25.0,97.65625,100.0,83.52941176470588,100.0,66.66666666666666,100.0,100.0
,77.16535433070865,85.71428571428571,69.89247311827957,75.0,91.59125188536953,100.0,97.25490196078431,50.0,75.82417582417582,100.0,54.83870967741935,100.0,100.0
,75.28089887640449,66.66666666666666,63.51351351351351,66.66666666666666,91.55035835533761,0.0,97.35849056603773,83.33333333333334,81.60919540229885,75.0,50.0,,100.0
100.0,79.83870967741935,70.58823529411765,68.67469879518072,50.0,91.51401869158879,50.0,97.265625,0.0,88.31168831168831,100.0,50.0,100.0,100.0
,82.97872340425532,72.22222222222221,64.63414634146342,66.66666666666666,91.50204994409243,20.0,97.67441860465115,75.0,80.23255813953489,100.0,59.09090909090909,100.0,100.0
,83.96624472573839,83.33333333333334,60.396039603960396,75.0,91.84597961494903,0.0,95.81749049429658,33.33333333333333,75.28089887640449,0.0,59.375,100.0,100.0
100.0,78.68217054263566,63.63636363636363,63.33333333333333,,92.09231933409005,33.33333333333333,97.3076923076923,60.0,81.60919540229885,100.0,48.64864864864865,100.0,100.0
100.0,80.81632653061224,71.42857142857143,67.36842105263158,50.0,91.75141242937853,0.0,96.10894941634241,66.66666666666666,80.45977011494253,66.66666666666666,57.14285714285714,100.0,100.0
50.0,79.39914163090128,81.81818181818183,66.30434782608695,50.0,91.29782445611403,0.0,94.29657794676805,80.0,78.88888888888889,100.0,65.38461538461539,100.0,100.0
,80.75313807531381,75.0,61.702127659574465,50.0,91.37931034482759,0.0,95.78544061302682,62.5,81.17647058823529,,50.0,100.0,100.0
,82.52032520325203,83.33333333333334,67.02127659574468,100.0,92.02107640195709,0.0,96.89922480620154,100.0,73.11827956989248,75.0,65.38461538461539,100.0,100.0
,78.68852459016394,66.66666666666666,65.21739130434783,100.0,91.55722326454033,0.0,95.01915708812261,100.0,73.11827956989248,100.0,72.72727272727273,100.0,
,80.7017543859649,90.9090909090909,58.16326530612245,100.0,90.95327102803739,33.33333333333333,98.41897233201581,100.0,77.27272727272727,75.0,46.875,100.0,100.0
,83.33333333333334,57.14285714285714,66.23376623376623,66.66666666666666,91.25744047619048,20.0,98.046875,0.0,79.7752808988764,75.0,62.857142857142854,100.0,75.0
0.0,81.57894736842105,87.5,59.183673469387756,50.0,91.55722326454033,100.0,96.875,83.33333333333334,73.40425531914893,100.0,58.06451612903226,100.0,100.0
,83.1275720164609,58.333333333333336,67.08860759493672,80.0,92.02107640195709,0.0,96.99248120300751,83.33333333333334,71.57894736842105,100.0,62.5,100.0,100.0
0.0,82.23140495867769,83.33333333333334,66.29213483146067,83.33333333333334,92.078460958129,50.0,96.29629629629629,60.0,73.40425531914893,100.0,54.166666666666664,100.0,100.0
0.0,80.89430894308943,90.0,65.88235294117646,100.0,91.69161676646706,0.0,98.06201550387597,75.0,85.18518518518519,75.0,60.71428571428571,100.0,100.0
,80.9322033898305,88.88888888888889,64.8936170212766,100.0,91.59820761762509,33.33333333333333,97.65625,100.0,76.92307692307693,100.0,63.63636363636363,100.0,66.66666666666666
0.0,78.0,83.33333333333334,64.28571428571429,100.0,91.42000749344324,50.0,98.06949806949807,66.66666666666666,76.66666666666667,100.0,64.0,100.0,
,81.67330677290838,61.53846153846154,66.66666666666666,100.0,91.95922989807474,0.0,98.47328244274809,100.0,79.3103448275862,66.66666666666666,50.0,100.0,100.0
0.0,77.96610169491525,62.5,70.12987012987013,100.0,90.85820895522389,,97.31800766283524,50.0,74.73684210526315,0.0,53.125,100.0,100.0
0.0,79.25311203319502,92.3076923076923,67.08860759493672,75.0,91.20838009726899,0.0,96.57794676806084,60.0,79.54545454545455,100.0,60.0,100.0,100.0
0.0,79.69924812030075,75.0,65.82278481012658,80.0,92.44495064540622,50.0,98.45559845559846,57.14285714285714,73.62637362637363,100.0,51.515151515151516,100.0,50.0
,81.04838709677419,100.0,66.66666666666666,66.66666666666666,92.20338983050847,0.0,96.2406015037594,44.44444444444444,74.72527472527473,75.0,72.72727272727273,100.0,100.0
,76.03305785123968,90.0,66.66666666666666,50.0,91.1036036036036,0.0,95.83333333333334,50.0,76.34408602150538,100.0,50.0,100.0,0.0
,77.95275590551181,71.42857142857143,68.83116883116884,33.33333333333333,92.09634926608958,100.0,98.07692307692307,33.33333333333333,76.66666666666667,100.0,52.94117647058824,100.0,100.0
,78.0,66.66666666666666,67.07317073170732,100.0,91.59506910720955,,97.63779527559055,50.0,82.35294117647058,50.0,64.28571428571429,80.0,
,79.26829268292683,87.5,60.824742268041234,75.0,91.61362785473605,,98.01587301587301,50.0,83.52941176470588,100.0,57.692307692307686,100.0,100.0
100.0,78.42323651452283,75.0,65.82278481012658,66.66666666666666,91.44786196549137,20.0,98.0544747081712,85.71428571428571,76.92307692307693,100.0,58.06451612903226,100.0,
0.0,77.36625514403292,72.72727272727273,64.1025641025641,33.33333333333333,91.01751770406261,0.0,98.828125,100.0,82.55813953488372,66.66666666666666,35.714285714285715,100.0,100.0
,80.59071729957806,64.28571428571429,63.52941176470588,100.0,91.72621286197818,0.0,98.07692307692307,60.0,72.52747252747253,100.0,51.515151515151516,100.0,100.0
,79.91452991452992,86.66666666666667,66.25,60.0,91.18745332337565,33.33333333333333,98.83268482490273,85.71428571428571,76.13636363636364,100.0,53.57142857142857,100.0,100.0
0.0,82.14285714285714,66.66666666666666,58.69565217391305,50.0,92.22641509433961,0.0,98.44961240310077,75.0,80.23255813953489,100.0,61.111111111111114,100.0,100.0
,80.32128514056225,90.9090909090909,76.31578947368422,50.0,91.59506910720955,0.0,97.65625,50.0,77.64705882352942,66.66666666666666,58.620689655172406,100.0,100.0
50.0,79.66101694915254,66.66666666666666,60.215053763440864,66.66666666666666,91.55722326454033,20.0,97.68339768339769,40.0,79.06976744186046,50.0,63.33333333333333,100.0,66.66666666666666
0.0,82.98755186721992,90.0,60.256410256410255,50.0,91.42111152555017,0.0,97.67441860465115,50.0,78.16091954022988,100.0,70.96774193548387,100.0,100.0
,82.37704918032787,85.71428571428571,69.04761904761905,66.66666666666666,91.45106861642294,0.0,97.67441860465115,100.0,80.23255813953489,,45.16129032258064,100.0,100.0
0.0,81.89300411522635,76.92307692307693,70.0,50.0,91.70108899737139,,98.85496183206108,33.33333333333333,80.23255813953489,,54.54545454545454,100.0,100.0
100.0,79.82832618025752,71.42857142857143,70.88607594936708,100.0,91.37737961926092,0.0,97.2972972972973,100.0,83.33333333333334,100.0,57.57575757575758,100.0,100.0
,78.68852459016394,83.33333333333334,59.756097560975604,100.0,91.17975437290659,66.66666666666666,98.03149606299213,66.66666666666666,80.72289156626506,75.0,76.19047619047619,100.0,100.0
0.0,76.09561752988047,90.0,60.215053763440864,33.33333333333333,91.25375375375376,,96.875,75.0,80.45977011494253,100.0,60.0,100.0,100.0
,79.14893617021276,50.0,68.29268292682927,80.0,90.86502609992543,0.0,97.28682170542635,60.0,75.86206896551724,100.0,55.55555555555556,100.0,100.0
0.0,79.09836065573771,78.57142857142857,64.51612903225806,75.0,91.74793698424605,0.0,98.46153846153847,60.0,80.0,75.0,55.00000000000001,100.0,100.0
,80.17241379310344,69.23076923076923,68.35443037974683,100.0,90.97378277153558,100.0,96.60377358490567,25.0,73.03370786516854,100.0,53.125,100.0,100.0
,79.75206611570248,66.66666666666666,64.55696202531645,66.66666666666666,91.56987635818659,50.0,97.71863117870723,50.0,81.3953488372093,100.0,58.06451612903226,100.0,100.0
,77.86259541984732,50.0,65.71428571428571,100.0,91.4853713428357,0.0,97.70992366412213,71.42857142857143,80.68181818181817,50.0,57.692307692307686,100.0,100.0
0.0,77.82101167315176,72.72727272727273,65.0,33.33333333333333,91.61362785473605,33.33333333333333,97.63779527559055,42.857142857142854,77.52808988764045,100.0,66.66666666666666,100.0,
,80.4,66.66666666666666,69.51219512195121,50.0,91.75762137749342,25.0,98.08429118773945,80.0,84.33734939759037,83.33333333333334,50.0,100.0,100.0
0.0,82.53968253968253,66.66666666666666,70.45454545454545,50.0,92.14798036995091,,96.93486590038314,66.66666666666666,76.08695652173914,66.66666666666666,60.0,100.0,100.0
,78.88446215139442,76.92307692307693,61.95652173913043,75.0,91.8144096567333,0.0,98.81422924901186,75.0,76.34408602150538,100.0,59.375,100.0,100.0
,80.52434456928839,77.77777777777779,72.28915662650603,100.0,91.90207156308851,50.0,98.4251968503937,83.33333333333334,85.36585365853658,100.0,51.515151515151516,100.0,100.0
,79.74137931034483,64.28571428571429,66.66666666666666,60.0,91.19190404797601,100.0,95.84905660377359,66.66666666666666,78.16091954022988,75.0,43.333333333333336,100.0,100.0
100.0,76.22641509433963,87.5,62.92134831460674,66.66666666666666,91.96665403561956,33.33333333333333,97.73584905660377,80.0,75.26881720430107,100.0,57.89473684210527,100.0,100.0
,78.88446215139442,100.0,63.46153846153846,60.0,92.1420476010578,50.0,98.4126984126984,60.0,75.78947368421053,0.0,79.3103448275862,100.0,100.0
0.0,79.09836065573771,62.5,60.0,50.0,91.3566328447952,100.0,98.4375,80.0,78.16091954022988,100.0,41.37931034482759,100.0,100.0
100.0,80.3921568627451,100.0,70.73170731707317,60.0,92.08741522230596,0.0,96.61654135338345,100.0,74.73684210526315,100.0,66.66666666666666,100.0,100.0
0.0,79.59183673469387,70.0,69.04761904761905,33.33333333333333,91.49175412293853,0.0,96.56488549618321,75.0,82.14285714285714,75.0,46.666666666666664,100.0,100.0
0.0,77.77777777777779,80.0,65.9090909090909,100.0,92.21760483566301,50.0,97.3076923076923,85.71428571428571,74.44444444444444,100.0,50.0,100.0,100.0
50.0,81.43459915611815,83.33333333333334,67.44186046511628,66.66666666666666,91.44026795682917,,99.21875,40.0,82.71604938271605,,48.57142857142857,100.0,100.0
33.33333333333333,80.3347280334728,41.17647058823529,68.05555555555556,100.0,91.17867867867868,0.0,96.92307692307692,75.0,76.92307692307693,60.0,60.60606060606061,100.0,100.0
,74.4186046511628,100.0,64.28571428571429,33.33333333333333,91.98632738321307,0.0,96.96969696969697,71.42857142857143,76.34408602150538,100.0,56.52173913043478,100.0,100.0
0.0,83.91304347826087,90.9090909090909,72.15189873417721,50.0,91.18303571428571,0.0,97.68339768339769,33.33333333333333,80.45977011494253,50.0,50.0,100.0,100.0
0.0,80.65843621399176,88.88888888888889,72.94117647058823,66.66666666666666,91.94883370955606,0.0,96.25468164794007,100.0,78.4090909090909,100.0,58.333333333333336,100.0,100.0
100.0,85.71428571428571,81.81818181818183,63.1578947368421,75.0,91.23788217747949,33.33333333333333,96.89922480620154,80.0,78.02197802197803,50.0,41.37931034482759,100.0,100.0
,80.48780487804879,88.88888888888889,62.92134831460674,66.66666666666666,91.39097744360902,0.0,97.33840304182509,50.0,71.57894736842105,50.0,60.0,100.0,100.0
100.0,78.17460317460318,64.28571428571429,66.66666666666666,50.0,91.16435791838263,33.33333333333333,97.6470588235294,37.5,82.14285714285714,50.0,57.14285714285714,100.0,100.0
100.0,79.76190476190477,76.92307692307693,67.3913043478261,75.0,91.87759727993955,,97.66536964980544,60.0,79.54545454545455,100.0,55.55555555555556,100.0,100.0
,80.68669527896995,58.333333333333336,62.5,50.0,90.98391320613543,66.66666666666666,96.94656488549617,75.0,75.28089887640449,100.0,51.61290322580645,100.0,100.0
,79.2,75.0,62.22222222222222,100.0,92.1280602636535,25.0,96.93486590038314,80.0,78.88888888888889,100.0,62.06896551724138,100.0,100.0
100.0,75.09727626459144,73.33333333333333,62.35294117647059,75.0,91.74242424242425,100.0,98.45559845559846,85.71428571428571,78.02197802197803,100.0,52.94117647058824,100.0,100.0
100.0,85.77235772357723,66.66666666666666,61.702127659574465,60.0,91.84517098835025,0.0,97.3076923076923,75.0,74.72527472527473,100.0,64.0,100.0,100.0
,81.35593220338984,84.61538461538461,62.35294117647059,50.0,91.25375375375376,100.0,97.63779527559055,80.0,73.19587628865979,66.66666666666666,55.26315789473685,100.0,100.0
0.0,79.09836065573771,66.66666666666666,62.35294117647059,66.66666666666666,91.31086142322098,0.0,98.046875,60.0,74.19354838709677,100.0,64.28571428571429,100.0,100.0
100.0,77.82101167315176,80.0,67.77777777777779,75.0,91.76426142803173,0.0,96.93486590038314,80.0,81.92771084337349,,38.88888888888889,100.0,100.0
,81.04838709677419,66.66666666666666,60.75949367088608,50.0,91.63540885221305,25.0,97.27626459143968,40.0,77.77777777777779,100.0,62.857142857142854,100.0,
100.0,81.06995884773663,83.33333333333334,56.32183908045977,66.66666666666666,91.28802102891476,0.0,96.22641509433963,33.33333333333333,82.55813953488372,100.0,56.666666666666664,100.0,100.0
,79.18367346938776,76.92307692307693,68.18181818181817,0.0,91.03422619047619,0.0,96.95817490494296,100.0,78.57142857142857,100.0,57.14285714285714,100.0,100.0
0.0,83.40080971659918,80.0,64.70588235294117,80.0,91.67921686746988,0.0,98.44357976653697,100.0,69.0721649484536,50.0,54.83870967741935,100.0,100.0
50.0,77.96610169491525,63.63636363636363,70.27027027027027,100.0,90.80074487895718,0.0,96.92307692307692,66.66666666666666,75.55555555555556,100.0,53.57142857142857,100.0,100.0
0.0,82.92682926829268,66.66666666666666,60.0,100.0,92.2583081570997,0.0,96.18320610687023,100.0,80.23255813953489,100.0,52.94117647058824,100.0,100.0
0.0,80.0,75.0,64.83516483516483,75.0,91.84905660377358,0.0,97.60956175298804,100.0,74.19354838709677,100.0,55.88235294117647,100.0,100.0
50.0,83.07086614173228,69.23076923076923,59.79381443298969,75.0,92.16799091940976,0.0,96.56488549618321,50.0,78.65168539325843,100.0,65.38461538461539,100.0,100.0
100.0,82.27848101265823,76.92307692307693,70.0,100.0,91.64794007490636,0.0,98.44961240310077,100.0,74.46808510638297,66.66666666666666,53.84615384615385,100.0,100.0
0.0,76.74418604651163,60.0,66.26506024096386,60.0,92.4357034795764,0.0,97.70992366412213,50.0,80.45977011494253,100.0,60.0,100.0,100.0
,81.85483870967742,58.82352941176471,65.9090909090909,75.0,91.8898528857035,,97.67441860465115,80.0,75.82417582417582,100.0,48.484848484848484,100.0,100.0
,76.953125,77.77777777777779,65.06024096385542,100.0,91.68241965973534,0.0,95.83333333333334,42.857142857142854,73.68421052631578,100.0,51.42857142857142,100.0,100.0
,77.61194029850746,100.0,67.02127659574468,100.0,92.15314632297195,0.0,99.21259842519686,60.0,85.0,100.0,50.0,100.0,100.0
,77.51004016064257,44.44444444444444,64.44444444444444,100.0,91.46706586826348,,98.06201550387597,71.42857142857143,84.33734939759037,100.0,62.96296296296296,100.0,100.0
0.0,77.91666666666667,82.35294117647058,65.88235294117646,66.66666666666666,91.4725770097671,50.0,96.25468164794007,66.66666666666666,72.82608695652173,100.0,53.84615384615385,100.0,
,80.91603053435115,72.72727272727273,70.51282051282051,33.33333333333333,91.89291101055807,,97.67441860465115,50.0,71.875,100.0,58.06451612903226,100.0,100.0
0.0,77.54237288135593,58.333333333333336,60.22727272727273,100.0,91.68234851336094,100.0,96.93486590038314,62.5,74.46808510638297,50.0,57.14285714285714,100.0,
,80.73770491803278,85.71428571428571,62.7906976744186,75.0,91.86222558667676,16.666666666666664,96.88715953307393,80.0,72.91666666666666,100.0,56.41025641025641,100.0,100.0
,77.77777777777779,76.47058823529412,62.19512195121951,75.0,91.89902034664658,0.0,97.68339768339769,83.33333333333334,82.14285714285714,100.0,61.53846153846154,100.0,100.0
0.0,76.89075630252101,80.0,61.79775280898876,75.0,91.13781449493052,,96.22641509433963,75.0,83.13253012048193,100.0,48.38709677419355,100.0,100.0
0.0,80.08658008658008,88.88888888888889,70.78651685393258,33.33333333333333,91.46706586826348,50.0,97.6923076923077,100.0,77.52808988764045,100.0,51.61290322580645,100.0,100.0
100.0,82.32758620689656,68.75,67.46987951807229,50.0,91.48618371919342,,98.83268482490273,80.0,76.08695652173914,100.0,62.06896551724138,100.0,100.0
,80.24193548387096,78.57142857142857,61.458333333333336,66.66666666666666,92.10526315789474,,98.828125,66.66666666666666,86.58536585365853,100.0,47.05882352941176,100.0,100.0
,79.75708502024291,66.66666666666666,68.13186813186813,75.0,91.67921686746988,0.0,97.31800766283524,66.66666666666666,75.0,50.0,62.5,100.0,50.0
,82.25108225108225,60.0,65.06024096385542,50.0,91.33184523809523,50.0,99.21259842519686,83.33333333333334,74.73684210526315,66.66666666666666,44.44444444444444,100.0,100.0
,81.41592920353983,90.0,63.63636363636363,66.66666666666666,91.00746268656717,,98.82352941176471,75.0,75.55555555555556,100.0,53.57142857142857,100.0,66.66666666666666
0.0,78.29457364341084,77.77777777777779,57.3170731707317,75.0,91.33056916698078,40.0,97.2972972972973,33.33333333333333,78.4090909090909,100.0,44.44444444444444,100.0,100.0
,81.48148148148148,83.33333333333334,72.09302325581395,50.0,91.50766928544707,0.0,98.83720930232558,100.0,73.33333333333333,,62.96296296296296,100.0,100.0
0.0,82.03125,84.61538461538461,64.13043478260869,66.66666666666666,91.8898528857035,0.0,96.16858237547893,100.0,79.76190476190477,50.0,56.00000000000001,100.0,100.0
,80.0,55.55555555555556,64.77272727272727,33.33333333333333,91.15898959881129,0.0,97.24409448818898,100.0,80.0,100.0,59.09090909090909,100.0,100.0
0.0,78.34645669291339,83.33333333333334,63.095238095238095,80.0,91.39421270199173,,97.33840304182509,60.0,82.92682926829268,100.0,48.275862068965516,100.0,100.0
,78.94736842105263,75.0,72.97297297297297,100.0,90.13617960986382,50.0,97.70114942528735,85.71428571428571,82.5,75.0,58.333333333333336,100.0,100.0
100.0,83.1275720164609,64.28571428571429,64.58333333333334,100.0,92.07248018120046,0.0,96.60377358490567,83.33333333333334,76.08695652173914,100.0,53.84615384615385,100.0,100.0
,79.33884297520662,78.57142857142857,60.0,100.0,91.20179707974542,50.0,98.83268482490273,100.0,89.47368421052632,100.0,54.54545454545454,100.0,50.0
,85.77586206896551,81.81818181818183,63.63636363636363,100.0,92.03307027433296,33.33333333333333,98.46743295019157,100.0,78.65168539325843,100.0,52.38095238095239,100.0,100.0
,78.60262008733623,85.71428571428571,59.183673469387756,66.66666666666666,91.05538922155688,25.0,98.4,71.42857142857143,78.16091954022988,100.0,51.61290322580645,100.0,100.0
100.0,78.46153846153847,84.61538461538461,67.44186046511628,100.0,91.85827365246891,100.0,98.09885931558935,100.0,77.27272727272727,100.0,58.333333333333336,100.0,100.0
,83.19672131147541,57.14285714285714,60.0,100.0,91.8429003021148,0.0,98.07692307692307,50.0,75.0,75.0,58.82352941176471,100.0,
33.33333333333333,79.59183673469387,76.92307692307693,65.0,66.66666666666666,91.72594533882442,0.0,98.03149606299213,100.0,76.13636363636364,50.0,70.0,100.0,100.0
100.0,77.05627705627705,75.0,66.66666666666666,100.0,90.93621782916821,0.0,97.70114942528735,66.66666666666666,78.16091954022988,100.0,61.904761904761905,100.0,100.0
,80.89430894308943,71.42857142857143,56.25,100.0,91.71374764595103,33.33333333333333,95.81749049429658,50.0,81.3953488372093,,40.0,100.0,100.0
,78.36734693877551,81.81818181818183,69.41176470588235,60.0,91.48217636022514,0.0,96.2406015037594,66.66666666666666,77.77777777777779,75.0,60.0,100.0,100.0
,84.1880341880342,66.66666666666666,62.637362637362635,60.0,91.67286245353161,100.0,97.6470588235294,83.33333333333334,84.33734939759037,50.0,68.42105263157895,100.0,100.0
0.0,81.55737704918032,69.23076923076923,66.27906976744185,66.66666666666666,91.73831775700934,100.0,95.81749049429658,80.0,86.07594936708861,75.0,60.86956521739131,100.0,100.0
,81.22448979591836,88.88888888888889,59.77011494252874,100.0,91.75103112110986,25.0,98.828125,80.0,79.06976744186046,100.0,53.125,100.0,100.0
0.0,78.17460317460318,100.0,63.04347826086957,75.0,92.19105382865807,0.0,96.94656488549617,62.5,71.0,100.0,56.666666666666664,100.0,100.0
,81.9327731092437,70.0,64.77272727272727,66.66666666666666,91.73831775700934,0.0,97.70992366412213,57.14285714285714,75.53191489361703,100.0,75.0,100.0,100.0
,77.8688524590164,61.53846153846154,58.0246913580247,40.0,91.36960600375235,50.0,97.6923076923077,50.0,76.40449438202246,0.0,51.515151515151516,100.0,100.0
,79.3859649122807,100.0,71.26436781609196,66.66666666666666,90.82125603864735,,95.81749049429658,75.0,81.17647058823529,0.0,59.25925925925925,100.0,100.0
0.0,76.92307692307693,69.23076923076923,59.55056179775281,66.66666666666666,91.17757009345794,,98.45559845559846,33.33333333333333,78.02197802197803,0.0,53.84615384615385,100.0,100.0
,83.2,68.75,54.44444444444444,50.0,91.74519411986431,,98.41897233201581,83.33333333333334,77.77777777777779,83.33333333333334,48.38709677419355,100.0,
0.0,79.47598253275109,66.66666666666666,62.35294117647059,100.0,91.30760584488571,0.0,97.34848484848484,85.71428571428571,76.34408602150538,,58.82352941176471,100.0,100.0
100.0,80.34934497816593,75.0,72.36842105263158,80.0,91.12933283637719,0.0,97.6923076923077,66.66666666666666,78.4090909090909,100.0,53.333333333333336,100.0,
0.0,84.0909090909091,70.0,62.745098039215684,100.0,91.75103112110986,0.0,97.35849056603773,100.0,77.52808988764045,66.66666666666666,57.14285714285714,100.0,
0.0,83.05084745762711,58.333333333333336,61.224489795918366,0.0,91.75141242937853,50.0,97.6470588235294,60.0,75.0,0.0,47.22222222222222,100.0,0.0
0.0,78.90295358649789,100.0,60.526315789473685,100.0,90.98360655737704,0.0,98.06201550387597,66.66666666666666,75.0,75.0,50.0,100.0,100.0
50.0,79.11646586345381,77.77777777777779,65.11627906976744,100.0,91.99248120300751,0.0,97.6923076923077,100.0,80.89887640449437,100.0,56.25,80.0,100.0
,81.640625,80.0,72.5,0.0,92.07248018120046,33.33333333333333,96.96969696969697,62.5,75.53191489361703,100.0,58.06451612903226,100.0,100.0
,78.16091954022988,81.81818181818183,72.36842105263158,66.66666666666666,91.60419790104947,50.0,98.07692307692307,100.0,83.52941176470588,66.66666666666666,69.23076923076923,100.0,100.0
,81.27490039840637,80.0,74.39024390243902,60.0,91.99697999244998,,96.93486590038314,57.14285714285714,76.40449438202246,50.0,55.26315789473685,100.0,100.0
,79.2156862745098,42.857142857142854,68.75,80.0,92.10128495842783,0.0,98.046875,60.0,73.40425531914893,100.0,58.620689655172406,100.0,100.0
,85.89211618257261,68.75,65.9090909090909,37.5,91.99697999244998,0.0,97.68339768339769,60.0,75.82417582417582,75.0,52.77777777777778,,100.0
,80.47808764940238,69.23076923076923,63.44086021505376,100.0,91.75451807228916,33.33333333333333,98.4251968503937,60.0,76.66666666666667,100.0,53.84615384615385,100.0,100.0
,80.15873015873017,80.0,65.47619047619048,50.0,91.74484052532833,25.0,98.4251968503937,50.0,77.52808988764045,100.0,59.375,100.0,100.0
0.0,80.55555555555556,72.72727272727273,51.02040816326531,100.0,91.64145234493192,,98.84169884169884,100.0,77.77777777777779,100.0,55.172413793103445,100.0,100.0
,77.25490196078432,70.0,74.15730337078652,50.0,92.23778871639531,0.0,98.47328244274809,100.0,74.72527472527473,50.0,65.0,100.0,100.0
,80.43478260869566,61.53846153846154,66.66666666666666,100.0,91.20059656972408,50.0,98.4251968503937,55.55555555555556,76.08695652173914,50.0,52.77777777777778,100.0,
,79.23076923076923,66.66666666666666,73.03370786516854,33.33333333333333,92.54070427868231,25.0,96.25468164794007,71.42857142857143,86.58536585365853,100.0,53.333333333333336,100.0,100.0
0.0,79.81651376146789,76.92307692307693,71.62162162162163,100.0,90.54505005561735,0.0,96.28252788104089,40.0,76.66666666666667,100.0,59.09090909090909,100.0,100.0
,78.51239669421489,66.66666666666666,60.215053763440864,33.33333333333333,91.30598419269853,33.33333333333333,97.70114942528735,71.42857142857143,73.40425531914893,100.0,61.904761904761905,100.0,50.0
,81.3953488372093,75.0,65.51724137931035,50.0,92.13907785336357,0.0,96.98113207547169,28.57142857142857,75.82417582417582,100.0,61.53846153846154,100.0,100.0
,79.08745247148289,85.71428571428571,67.10526315789474,40.0,91.72310007524455,0.0,97.65625,75.0,77.77777777777779,100.0,42.42424242424242,100.0,100.0
,83.61344537815127,66.66666666666666,67.07317073170732,75.0,91.73243141676062,,96.96969696969697,66.66666666666666,72.91666666666666,50.0,56.666666666666664,100.0,100.0
,79.57446808510639,58.333333333333336,67.94871794871796,50.0,91.29947722180732,0.0,98.06201550387597,100.0,73.91304347826086,100.0,64.51612903225806,100.0,100.0
,83.1275720164609,60.0,70.88607594936708,50.0,91.33681852128454,0.0,95.80152671755725,83.33333333333334,82.92682926829268,0.0,51.61290322580645,100.0,100.0
,80.0,70.0,57.647058823529406,25.0,91.33858267716536,0.0,99.60474308300395,50.0,75.82417582417582,50.0,57.14285714285714,100.0,100.0
0.0,79.91803278688525,78.57142857142857,65.06024096385542,33.33333333333333,91.71042760690172,0.0,98.07692307692307,100.0,78.65168539325843,66.66666666666666,58.620689655172406,100.0,100.0
0.0,78.92561983471074,75.0,61.05263157894737,0.0,91.55722326454033,100.0,96.56488549618321,83.33333333333334,83.9506172839506,,59.25925925925925,100.0,100.0
100.0,82.14285714285714,90.9090909090909,66.29213483146067,66.66666666666666,91.94097616345063,0.0,97.68339768339769,50.0,72.44897959183673,100.0,48.64864864864865,100.0,100.0
0.0,79.74683544303798,80.0,67.81609195402298,33.33333333333333,91.22479462285288,,98.09160305343512,80.0,85.71428571428571,50.0,42.857142857142854,100.0,100.0
,80.97345132743364,90.0,64.83516483516483,66.66666666666666,91.06145251396647,,98.44961240310077,100.0,80.45977011494253,80.0,46.666666666666664,100.0,100.0
,80.23255813953489,85.71428571428571,59.09090909090909,100.0,91.78907721280602,50.0,98.4251968503937,66.66666666666666,74.19354838709677,100.0,61.29032258064516,100.0,100.0
,83.66533864541833,81.81818181818183,70.27027027027027,50.0,91.92033070274333,100.0,98.09885931558935,71.42857142857143,75.28089887640449,100.0,60.60606060606061,100.0,100.0
,79.33884297520662,53.333333333333336,65.38461538461539,100.0,91.21621621621621,0.0,97.35849056603773,66.66666666666666,79.54545454545455,50.0,51.61290322580645,100.0,100.0
,80.87649402390437,75.0,72.0,75.0,92.14798036995091,0.0,96.95817490494296,85.71428571428571,70.29702970297029,100.0,66.66666666666666,100.0,100.0
,79.44664031620553,60.0,62.16216216216216,57.14285714285714,91.50131037064769,0.0,96.52509652509652,83.33333333333334,77.17391304347827,,64.28571428571429,100.0,
,82.09606986899564,84.61538461538461,68.75,60.0,91.14583333333334,0.0,96.99248120300751,100.0,79.26829268292683,100.0,50.0,100.0,100.0
,77.68595041322314,69.23076923076923,69.76744186046511,100.0,91.56671664167916,0.0,95.88014981273409,100.0,80.95238095238095,50.0,61.53846153846154,100.0,100.0
50.0,82.23938223938224,71.42857142857143,62.22222222222222,66.66666666666666,91.77978883861236,33.33333333333333,97.65625,66.66666666666666,77.27272727272727,100.0,32.0,100.0,100.0
,80.08298755186722,83.33333333333334,57.14285714285714,100.0,91.45841104065647,,97.71863117870723,100.0,78.16091954022988,66.66666666666666,71.42857142857143,100.0,100.0
,79.03225806451613,72.72727272727273,63.095238095238095,60.0,91.00827689992475,33.33333333333333,95.75289575289575,60.0,73.91304347826086,50.0,58.620689655172406,100.0,100.0
,81.62393162393163,81.81818181818183,67.85714285714286,66.66666666666666,91.65113678717853,25.0,97.00374531835206,50.0,82.75862068965517,100.0,61.904761904761905,66.66666666666666,100.0
50.0,80.32128514056225,75.0,67.04545454545455,66.66666666666666,92.0347300868252,,98.47328244274809,71.42857142857143,78.65168539325843,66.66666666666666,59.375,100.0,100.0
0.0,79.6078431372549,63.63636363636363,67.04545454545455,100.0,91.94580353782462,0.0,99.60159362549801,50.0,73.91304347826086,100.0,58.333333333333336,100.0,100.0
0.0,77.64227642276423,88.88888888888889,58.16326530612245,80.0,91.34687735139202,25.0,98.07692307692307,75.0,78.57142857142857,100.0,66.66666666666666,100.0,100.0
50.0,76.82926829268293,66.66666666666666,71.42857142857143,100.0,91.30434782608695,50.0,96.94656488549617,100.0,82.35294117647058,75.0,56.52173913043478,100.0,100.0
0.0,79.6875,61.111111111111114,74.66666666666667,60.0,91.92757450018861,0.0,96.98113207547169,88.88888888888889,81.3953488372093,100.0,60.71428571428571,100.0,100.0
100.0,81.06995884773663,54.54545454545454,64.28571428571429,40.0,91.3644859813084,0.0,98.4251968503937,75.0,78.16091954022988,75.0,35.714285714285715,100.0,100.0
,81.85328185328186,100.0,69.1358024691358,100.0,92.04673954014324,0.0,96.61654135338345,33.33333333333333,79.3103448275862,100.0,56.25,100.0,100.0
,82.7906976744186,68.75,63.91752577319587,66.66666666666666,90.76693968726731,33.33333333333333,96.18320610687023,66.66666666666666,86.25,33.33333333333333,62.96296296296296,100.0,100.0
0.0,78.08764940239044,70.0,62.96296296296296,33.33333333333333,90.97014925373135,33.33333333333333,98.06201550387597,50.0,75.5813953488372,100.0,70.0,100.0,100.0
0.0,78.33333333333333,88.88888888888889,55.10204081632652,75.0,91.38647525500566,0.0,97.67441860465115,42.857142857142854,75.26881720430107,100.0,51.28205128205128,100.0,100.0
,78.60082304526749,77.77777777777779,65.55555555555556,66.66666666666666,91.19520419632822,50.0,99.2156862745098,33.33333333333333,76.66666666666667,100.0,48.38709677419355,100.0,100.0
100.0,80.0,77.77777777777779,62.92134831460674,75.0,91.99093313184737,50.0,96.484375,66.66666666666666,75.55555555555556,100.0,62.857142857142854,100.0,100.0
0.0,83.18181818181817,80.0,64.77272727272727,66.66666666666666,91.09206112560567,0.0,97.32824427480917,80.0,74.71264367816092,100.0,50.0,100.0,100.0
,82.03125,90.0,67.85714285714286,100.0,91.77358490566037,100.0,97.31800766283524,42.857142857142854,72.3404255319149,50.0,53.57142857142857,100.0,100.0
,80.73770491803278,66.66666666666666,69.66292134831461,75.0,91.50943396226415,0.0,96.55172413793103,100.0,72.44897959183673,0.0,48.57142857142857,100.0,66.66666666666666
,78.05907172995781,61.111111111111114,61.627906976744185,100.0,91.17205108940645,0.0,96.22641509433963,50.0,78.65168539325843,100.0,56.00000000000001,83.33333333333334,100.0
0.0,78.18930041152264,64.70588235294117,65.06024096385542,66.66666666666666,91.39421270199173,,96.57794676806084,60.0,79.3103448275862,83.33333333333334,42.857142857142854,100.0,
,80.16877637130801,68.42105263157895,63.63636363636363,100.0,91.34507306107156,25.0,97.6470588235294,100.0,84.52380952380952,,58.06451612903226,100.0,100.0
0.0,80.07380073800738,83.33333333333334,63.63636363636363,75.0,92.09829867674858,0.0,98.4313725490196,50.0,88.60759493670885,66.66666666666666,53.333333333333336,100.0,100.0
100.0,78.41409691629956,72.72727272727273,59.59595959595959,66.66666666666666,91.11027756939235,0.0,96.96969696969697,42.857142857142854,80.68181818181817,0.0,48.275862068965516,100.0,50.0
,79.42386831275721,62.5,70.10309278350515,50.0,91.5190350546551,0.0,98.81889763779527,75.0,70.83333333333334,75.0,51.85185185185185,100.0,100.0
0.0,79.33884297520662,69.23076923076923,67.5,66.66666666666666,91.73553719008265,33.33333333333333,97.33840304182509,100.0,75.55555555555556,100.0,52.94117647058824,100.0,100.0
0.0,82.78688524590164,83.33333333333334,58.06451612903226,100.0,91.7761922643635,,98.06201550387597,66.66666666666666,80.45977011494253,75.0,52.17391304347826,80.0,100.0
,81.17647058823529,73.33333333333333,62.06896551724138,66.66666666666666,91.69797145003756,50.0,98.80952380952381,100.0,78.4090909090909,100.0,57.14285714285714,100.0,100.0
0.0,80.46875,90.0,67.81609195402298,66.66666666666666,91.94883370955606,0.0,97.70114942528735,60.0,83.52941176470588,100.0,59.25925925925925,100.0,100.0
50.0,80.62015503875969,81.81818181818183,68.6046511627907,100.0,92.28733459357278,50.0,98.0392156862745,80.0,70.29702970297029,66.66666666666666,57.14285714285714,100.0,100.0
0.0,82.15767634854771,80.0,63.95348837209303,100.0,91.60104986876641,100.0,96.1977186311787,0.0,72.63157894736842,100.0,62.96296296296296,100.0,100.0
,77.431906614786,92.3076923076923,65.82278481012658,100.0,91.72621286197818,0.0,98.09885931558935,50.0,79.54545454545455,100.0,72.0,100.0,100.0
,83.69098712446352,88.88888888888889,60.0,50.0,91.3677130044843,0.0,97.6923076923077,66.66666666666666,80.0,100.0,55.55555555555556,100.0,100.0
,76.95473251028807,57.14285714285714,62.92134831460674,50.0,90.99738513261113,,97.65625,100.0,77.27272727272727,100.0,69.23076923076923,66.66666666666666,100.0
,78.4090909090909,66.66666666666666,63.1578947368421,66.66666666666666,91.72960725075528,,98.07692307692307,66.66666666666666,80.0,100.0,58.97435897435898,100.0,50.0
,79.13385826771653,80.0,63.41463414634146,50.0,91.66355140186916,33.33333333333333,98.83720930232558,100.0,81.60919540229885,100.0,52.38095238095239,100.0,100.0
0.0,78.98832684824903,60.0,63.33333333333333,100.0,91.66666666666666,0.0,97.265625,80.0,76.34408602150538,66.66666666666666,59.25925925925925,100.0,100.0
,77.82101167315176,69.23076923076923,62.365591397849464,60.0,92.3950056753689,0.0,99.60317460317461,66.66666666666666,76.66666666666667,100.0,60.0,100.0,
100.0,81.78137651821862,61.53846153846154,67.85714285714286,100.0,92.02707784881534,0.0,97.65625,60.0,79.54545454545455,50.0,50.0,100.0,100.0
,81.52610441767068,81.81818181818183,59.78260869565217,75.0,91.62912912912913,50.0,96.875,33.33333333333333,87.5,50.0,55.88235294117647,100.0,100.0
0.0,77.90697674418605,75.0,65.78947368421053,50.0,91.57303370786516,50.0,97.70992366412213,75.0,80.0,50.0,80.95238095238095,100.0,100.0
,78.099173553719,77.77777777777779,58.88888888888889,66.66666666666666,91.37151469480031,0.0,95.50561797752809,57.14285714285714,78.88888888888889,100.0,43.75,100.0,100.0
,81.34920634920636,73.33333333333333,69.1358024691358,60.0,92.08848893888263,0.0,97.3076923076923,100.0,87.65432098765432,75.0,60.71428571428571,100.0,100.0
,77.38095238095238,75.0,62.92134831460674,100.0,91.75141242937853,50.0,99.21259842519686,80.0,78.65168539325843,,53.125,100.0,100.0
,80.3347280334728,100.0,60.256410256410255,50.0,91.22609673790775,25.0,97.27626459143968,50.0,72.3404255319149,75.0,54.054054054054056,100.0,100.0
0.0,77.38095238095238,64.28571428571429,62.76595744680851,50.0,91.80576631259484,0.0,96.96969696969697,60.0,79.51807228915662,33.33333333333333,56.75675675675676,100.0,100.0
,81.48148148148148,81.25,65.47619047619048,100.0,90.69854314531192,0.0,96.22641509433963,80.0,71.57894736842105,100.0,52.77777777777778,100.0,100.0
0.0,81.22448979591836,62.5,57.28155339805825,100.0,91.83673469387756,20.0,96.86274509803921,100.0,76.66666666666667,66.66666666666666,65.38461538461539,100.0,100.0
,78.18930041152264,81.81818181818183,61.95652173913043,40.0,91.76114890400605,50.0,96.12403100775194,88.88888888888889,74.22680412371135,100.0,53.125,100.0,100.0
100.0,79.27927927927928,86.66666666666667,62.7906976744186,100.0,90.8280727812848,33.33333333333333,97.6923076923077,75.0,80.48780487804879,100.0,55.55555555555556,100.0,100.0
,81.38528138528139,70.58823529411765,70.58823529411765,50.0,91.38576779026218,0.0,97.32824427480917,50.0,76.66666666666667,100.0,48.275862068965516,,100.0
,79.60000000000001,81.81818181818183,68.83116883116884,50.0,91.43284698840255,0.0,98.09160305343512,100.0,77.38095238095238,50.0,56.666666666666664,100.0,100.0
100.0,78.42323651452283,75.0,66.21621621621621,83.33333333333334,91.40712945590994,0.0,96.88715953307393,100.0,69.0,100.0,40.625,100.0,100.0
,78.33333333333333,60.0,58.69565217391305,71.42857142857143,91.72648281072912,33.33333333333333,95.55555555555556,60.0,76.13636363636364,100.0,53.125,100.0,100.0
,79.66101694915254,78.57142857142857,65.4320987654321,100.0,91.53874953201048,0.0,97.71863117870723,83.33333333333334,79.54545454545455,100.0,54.54545454545454,100.0,100.0
100.0,81.35593220338984,83.33333333333334,53.92156862745098,50.0,91.45009416195857,40.0,96.93486590038314,77.77777777777779,85.36585365853658,100.0,54.83870967741935,100.0,100.0
100.0,79.09836065573771,100.0,68.47826086956522,60.0,91.77668804224821,0.0,98.06201550387597,66.66666666666666,71.71717171717171,100.0,48.38709677419355,100.0,100.0
,81.29770992366412,80.0,62.22222222222222,33.33333333333333,92.23778871639531,0.0,96.60377358490567,100.0,84.14634146341463,,58.97435897435898,100.0,
,80.0,72.72727272727273,64.47368421052632,75.0,91.18086696562034,0.0,96.64179104477611,87.5,88.46153846153845,100.0,59.25925925925925,100.0,100.0
50.0,81.2,64.28571428571429,63.63636363636363,66.66666666666666,91.82674199623352,,98.06201550387597,71.42857142857143,78.88888888888889,33.33333333333333,48.275862068965516,100.0,100.0
,77.86259541984732,91.66666666666666,58.69565217391305,33.33333333333333,92.08523592085236,0.0,96.52509652509652,60.0,77.27272727272727,60.0,45.23809523809524,100.0,100.0
,76.37130801687763,81.81818181818183,67.5,50.0,90.76693968726731,0.0,97.67441860465115,100.0,71.73913043478261,100.0,66.66666666666666,100.0,
,78.099173553719,69.23076923076923,58.333333333333336,40.0,91.26686656671664,0.0,97.265625,60.0,78.26086956521739,100.0,66.66666666666666,100.0,
,82.68398268398268,73.33333333333333,65.85365853658537,50.0,91.28971962616822,0.0,97.71863117870723,33.33333333333333,80.45977011494253,66.66666666666666,56.25,100.0,100.0
100.0,82.5,55.55555555555556,68.23529411764706,57.14285714285714,91.98501872659176,0.0,96.55172413793103,60.0,79.06976744186046,75.0,65.51724137931035,100.0,100.0
0.0,78.57142857142857,85.71428571428571,71.62162162162163,83.33333333333334,91.1544227886057,0.0,96.88715953307393,50.0,79.06976744186046,100.0,66.66666666666666,100.0,
,77.64227642276423,87.5,59.79381443298969,100.0,91.66037735849056,0.0,97.68339768339769,75.0,75.82417582417582,80.0,45.45454545454545,100.0,100.0
50.0,79.26829268292683,72.72727272727273,64.19753086419753,100.0,91.34182908545728,100.0,98.44357976653697,83.33333333333334,77.17391304347827,100.0,55.172413793103445,75.0,100.0
,81.63265306122449,90.0,59.036144578313255,66.66666666666666,91.45009416195857,100.0,98.08429118773945,66.66666666666666,77.77777777777779,100.0,40.0,100.0,100.0
0.0,81.12449799196787,81.25,56.25,66.66666666666666,92.31647014073793,0.0,97.34848484848484,66.66666666666666,78.88888888888889,,48.717948717948715,100.0,100.0
,80.89430894308943,86.66666666666667,59.30232558139535,66.66666666666666,91.52542372881356,50.0,96.52509652509652,37.5,80.45977011494253,100.0,44.11764705882353,100.0,66.66666666666666
,81.9672131147541,84.61538461538461,65.82278481012658,66.66666666666666,91.24579124579124,,98.06949806949807,40.0,78.4090909090909,0.0,60.60606060606061,100.0,100.0
,82.83261802575107,83.33333333333334,64.19753086419753,75.0,91.51718983557548,33.33333333333333,96.55172413793103,66.66666666666666,81.3953488372093,100.0,60.0,100.0,100.0
100.0,80.55555555555556,75.0,68.13186813186813,50.0,91.86351706036746,50.0,97.27626459143968,100.0,87.17948717948718,100.0,45.45454545454545,100.0,
100.0,75.8893280632411,61.53846153846154,59.79381443298969,100.0,91.60997732426304,0.0,97.265625,100.0,76.92307692307693,100.0,37.5,100.0,100.0
,77.5,84.61538461538461,66.21621621621621,60.0,91.51718983557548,33.33333333333333,97.71863117870723,66.66666666666666,79.76190476190477,100.0,64.51612903225806,100.0,100.0
50.0,79.13385826771653,75.0,71.91011235955057,50.0,91.84210526315789,,99.59839357429718,100.0,76.40449438202246,66.66666666666666,67.64705882352942,100.0,100.0
0.0,82.5910931174089,83.33333333333334,69.76744186046511,100.0,92.29902329075883,0.0,97.32824427480917,100.0,78.82352941176471,100.0,62.96296296296296,100.0,100.0
,79.24528301886792,80.0,64.47368421052632,50.0,91.60419790104947,0.0,97.28682170542635,66.66666666666666,78.65168539325843,,57.89473684210527,100.0,100.0
0.0,82.7433628318584,63.63636363636363,56.52173913043478,50.0,90.96989966555184,0.0,97.2972972972973,80.0,81.17647058823529,100.0,50.0,100.0,100.0
,77.51937984496125,90.9090909090909,70.3125,33.33333333333333,90.95645701525865,33.33333333333333,97.68339768339769,50.0,80.68181818181817,100.0,59.09090909090909,100.0,
0.0,78.75,71.42857142857143,69.23076923076923,50.0,91.74519411986431,0.0,97.70114942528735,83.33333333333334,73.68421052631578,100.0,58.620689655172406,100.0,100.0
0.0,80.41666666666667,61.111111111111114,62.06896551724138,100.0,91.62580158430781,25.0,98.82352941176471,83.33333333333334,75.82417582417582,0.0,58.333333333333336,100.0,100.0
,81.30841121495327,81.81818181818183,66.0,50.0,90.72700296735906,25.0,95.07575757575758,100.0,87.01298701298701,100.0,52.0,100.0,
,79.92277992277992,62.5,65.21739130434783,50.0,91.8106686701728,25.0,98.4375,66.66666666666666,82.14285714285714,100.0,64.0,,50.0
,80.63241106719367,76.92307692307693,62.22222222222222,100.0,91.82058047493403,0.0,96.52509652509652,66.66666666666666,83.9506172839506,50.0,48.57142857142857,100.0,100.0
,76.98412698412699,55.55555555555556,65.78947368421053,60.0,91.67916041979011,0.0,96.92307692307692,100.0,76.92307692307693,75.0,60.0,100.0,100.0
50.0,79.09836065573771,70.0,64.1025641025641,66.66666666666666,91.4766355140187,0.0,96.93486590038314,85.71428571428571,81.3953488372093,100.0,61.53846153846154,100.0,100.0
,82.78688524590164,75.0,65.59139784946237,60.0,91.85129553135562,,98.82352941176471,75.0,77.01149425287356,100.0,65.625,100.0,100.0
,80.1762114537445,75.0,67.07317073170732,50.0,91.15341545352743,0.0,96.96969696969697,100.0,73.40425531914893,80.0,66.66666666666666,100.0,100.0
,79.11646586345381,87.5,70.88607594936708,100.0,91.4798206278027,0.0,97.71863117870723,66.66666666666666,76.92307692307693,75.0,61.904761904761905,100.0,
,79.46768060836501,81.81818181818183,71.95121951219512,60.0,91.72310007524455,100.0,96.56488549618321,75.0,78.16091954022988,0.0,54.166666666666664,100.0,100.0
100.0,79.1044776119403,92.85714285714286,65.06024096385542,66.66666666666666,92.12717638152914,66.66666666666666,97.27626459143968,75.0,76.40449438202246,50.0,54.83870967741935,100.0,100.0
,78.2051282051282,66.66666666666666,61.95652173913043,33.33333333333333,91.10945087784835,100.0,97.31800766283524,50.0,82.55813953488372,100.0,52.0,100.0,100.0
,79.6812749003984,93.75,59.34065934065934,50.0,91.72310007524455,0.0,99.20634920634922,100.0,79.3103448275862,100.0,62.06896551724138,100.0,100.0
0.0,81.86046511627907,87.5,65.38461538461539,50.0,90.74074074074075,0.0,96.5909090909091,25.0,73.68421052631578,,61.53846153846154,100.0,66.66666666666666
0.0,80.0,44.44444444444444,65.11627906976744,66.66666666666666,91.57618869337327,50.0,96.93486590038314,85.71428571428571,82.75862068965517,100.0,69.23076923076923,100.0,100.0
100.0,82.0,58.82352941176471,67.5,80.0,91.9172932330827,33.33333333333333,95.88014981273409,57.14285714285714,88.60759493670885,100.0,45.83333333333333,100.0,100.0
,79.16666666666666,80.0,66.19718309859155,75.0,91.52352501867065,0.0,97.24409448818898,100.0,77.77777777777779,100.0,70.0,100.0,100.0
,79.47598253275109,70.0,59.55056179775281,57.14285714285714,91.1676646706587,0.0,96.91119691119691,25.0,75.82417582417582,0.0,55.88235294117647,100.0,
,80.85106382978722,100.0,68.05555555555556,75.0,91.00037188545927,0.0,97.24409448818898,100.0,74.72527472527473,75.0,62.16216216216216,100.0,100.0
100.0,82.62711864406779,78.57142857142857,63.44086021505376,66.66666666666666,91.63540885221305,,97.70992366412213,75.0,82.71604938271605,50.0,47.368421052631575,100.0,100.0
0.0,80.49792531120332,69.23076923076923,64.44444444444444,66.66666666666666,91.92147980369951,,95.1492537313433,37.5,73.19587628865979,100.0,62.96296296296296,100.0,100.0
,81.66666666666667,71.42857142857143,65.33333333333333,50.0,91.27491538172245,33.33333333333333,96.92307692307692,42.857142857142854,74.19354838709677,100.0,52.63157894736842,100.0,100.0
,81.60919540229885,81.81818181818183,66.26506024096386,75.0,92.05147615442847,,95.84905660377359,60.0,82.14285714285714,100.0,48.717948717948715,100.0,100.0
,78.8135593220339,87.5,64.0,100.0,91.5445321307779,25.0,99.20634920634922,66.66666666666666,75.26881720430107,100.0,51.515151515151516,100.0,100.0
0.0,81.04838709677419,86.66666666666667,62.35294117647059,100.0,91.75141242937853,0.0,95.47169811320755,66.66666666666666,75.82417582417582,100.0,58.620689655172406,100.0,100.0
,77.82258064516128,75.0,60.256410256410255,100.0,91.19307489649981,,97.265625,83.33333333333334,72.16494845360825,80.0,50.0,100.0,100.0
100.0,81.41592920353983,66.66666666666666,64.86486486486487,100.0,90.67702552719201,,98.47908745247148,75.0,80.48780487804879,100.0,42.857142857142854,100.0,100.0
,79.40074906367042,90.9090909090909,64.63414634146342,100.0,91.86222558667676,50.0,98.4375,83.33333333333334,76.08695652173914,50.0,44.73684210526316,100.0,100.0
50.0,76.73469387755102,76.92307692307693,71.42857142857143,100.0,91.29129129129129,66.66666666666666,98.03149606299213,50.0,79.7752808988764,,55.00000000000001,100.0,0.0
,79.01234567901234,83.33333333333334,54.25531914893617,75.0,91.18529632408102,0.0,97.21115537848605,66.66666666666666,82.92682926829268,66.66666666666666,42.42424242424242,100.0,50.0
,81.02766798418972,58.333333333333336,67.81609195402298,66.66666666666666,91.78288729739917,33.33333333333333,97.2972972972973,50.0,75.53191489361703,75.0,56.00000000000001,100.0,
,81.6,69.23076923076923,67.10526315789474,100.0,91.49253731343283,0.0,97.27626459143968,100.0,78.26086956521739,50.0,73.91304347826086,100.0,50.0
,78.94736842105263,88.88888888888889,67.04545454545455,50.0,91.73243141676062,0.0,97.31800766283524,75.0,78.4090909090909,100.0,52.94117647058824,100.0,100.0
,79.50819672131148,72.72727272727273,60.49382716049383,33.33333333333333,90.9090909090909,0.0,97.66536964980544,62.5,71.1340206185567,100.0,57.14285714285714,100.0,100.0
,81.43459915611815,75.0,61.627906976744185,75.0,91.89391109450878,0.0,99.23371647509579,44.44444444444444,86.25,66.66666666666666,51.85185185185185,100.0,
,81.70731707317073,77.77777777777779,57.647058823529406,75.0,91.34005225830533,0.0,98.45559845559846,66.66666666666666,83.33333333333334,100.0,69.23076923076923,100.0,100.0
0.0,82.11382113821138,66.66666666666666,63.2183908045977,50.0,91.44465290806755,0.0,96.96969696969697,57.14285714285714,76.19047619047619,100.0,41.66666666666667,100.0,
,82.75862068965517,81.81818181818183,59.183673469387756,100.0,91.82295573893472,0.0,97.3076923076923,50.0,81.3953488372093,100.0,50.0,100.0,100.0
,81.74603174603175,75.0,66.26506024096386,66.66666666666666,91.50695227358136,100.0,98.4251968503937,85.71428571428571,75.82417582417582,100.0,43.333333333333336,100.0,100.0
100.0,79.59183673469387,72.72727272727273,59.756097560975604,100.0,91.49494192581491,0.0,96.96969696969697,80.0,82.35294117647058,100.0,57.14285714285714,100.0,50.0
0.0,80.85106382978722,80.0,65.85365853658537,100.0,91.26539753639418,0.0,96.91119691119691,66.66666666666666,79.3103448275862,100.0,60.0,100.0,100.0
,83.88429752066115,80.0,78.04878048780488,80.0,92.13694507148232,20.0,98.07692307692307,100.0,70.0,100.0,54.83870967741935,100.0,100.0
,79.66101694915254,70.0,65.11627906976744,66.66666666666666,91.09869646182496,0.0,98.41897233201581,100.0,73.40425531914893,100.0,50.0,100.0,100.0
,78.92561983471074,80.0,63.095238095238095,50.0,91.41035258814703,,97.73584905660377,75.0,75.55555555555556,100.0,60.0,100.0,100.0
,79.11646586345381,100.0,65.1685393258427,50.0,91.62912912912913,0.0,97.28682170542635,40.0,79.7752808988764,100.0,60.71428571428571,100.0,100.0
,80.64516129032258,75.0,69.23076923076923,75.0,91.93366000753863,0.0,98.08429118773945,80.0,75.86206896551724,100.0,50.0,100.0,100.0
,83.11111111111111,76.92307692307693,58.69565217391305,100.0,91.43925233644859,0.0,97.67441860465115,80.0,74.73684210526315,100.0,66.66666666666666,100.0,100.0
50.0,80.3347280334728,78.57142857142857,62.22222222222222,100.0,91.63854518185227,50.0,97.3076923076923,75.0,81.3953488372093,50.0,56.666666666666664,100.0,100.0
0.0,78.26086956521739,66.66666666666666,54.761904761904766,66.66666666666666,91.27163280662151,,95.88014981273409,83.33333333333334,80.68181818181817,50.0,54.83870967741935,100.0,100.0
,77.68924302788844,83.33333333333334,67.12328767123287,83.33333333333334,91.28971962616822,0.0,99.2248062015504,66.66666666666666,76.66666666666667,100.0,62.96296296296296,100.0,100.0
100.0,79.74683544303798,81.81818181818183,56.84210526315789,60.0,91.42212189616254,0.0,97.67441860465115,66.66666666666666,79.7752808988764,,44.11764705882353,100.0,100.0
,79.03930131004367,64.28571428571429,64.04494382022472,75.0,90.91249065071054,100.0,96.56488549618321,85.71428571428571,75.0,66.66666666666666,48.275862068965516,100.0,
0.0,81.78294573643412,72.72727272727273,73.33333333333333,66.66666666666666,91.62616822429906,50.0,95.80152671755725,50.0,80.0,75.0,44.44444444444444,100.0,
,80.4,68.75,56.25,100.0,91.8260217472816,100.0,98.046875,33.33333333333333,85.54216867469879,50.0,61.111111111111114,100.0,100.0
,80.49792531120332,54.54545454545454,70.88607594936708,83.33333333333334,91.56943921716221,33.33333333333333,96.96969696969697,66.66666666666666,74.19354838709677,100.0,42.857142857142854,100.0,100.0
,79.90867579908677,58.333333333333336,64.36781609195403,75.0,90.4074074074074,25.0,98.79032258064517,75.0,76.66666666666667,100.0,50.0,100.0,100.0
,76.76348547717843,61.53846153846154,60.71428571428571,75.0,90.84427767354597,50.0,96.49805447470817,66.66666666666666,80.95238095238095,0.0,39.02439024390244,100.0,100.0
,81.02766798418972,90.0,65.59139784946237,80.0,91.88884716485167,0.0,98.0392156862745,83.33333333333334,81.3953488372093,66.66666666666666,52.17391304347826,100.0,
,80.42553191489363,72.72727272727273,60.86956521739131,75.0,91.89797449362341,100.0,98.44357976653697,83.33333333333334,75.82417582417582,50.0,51.61290322580645,100.0,100.0
,85.71428571428571,81.81818181818183,54.25531914893617,100.0,91.14253814663194,33.33333333333333,96.95817490494296,100.0,81.60919540229885,100.0,62.96296296296296,100.0,
100.0,79.56521739130434,58.333333333333336,65.26315789473685,75.0,91.45427286356822,0.0,97.3076923076923,66.66666666666666,82.55813953488372,50.0,52.94117647058824,100.0,100.0
0.0,80.3347280334728,57.14285714285714,56.17977528089888,100.0,91.06875934230195,0.0,98.4126984126984,66.66666666666666,74.19354838709677,50.0,38.46153846153847,100.0,100.0
0.0,82.91666666666667,85.71428571428571,66.66666666666666,100.0,91.37546468401487,33.33333333333333,98.06949806949807,50.0,84.14634146341463,100.0,76.92307692307693,100.0,100.0
,77.07509881422925,90.0,70.45454545454545,100.0,91.52288072018004,50.0,98.06949806949807,80.0,77.77777777777779,100.0,65.0,100.0,100.0
100.0,78.76447876447877,78.57142857142857,63.1578947368421,100.0,91.64167916041978,0.0,97.25490196078431,71.42857142857143,86.41975308641975,100.0,46.42857142857143,100.0,100.0
100.0,78.0,64.28571428571429,63.013698630136986,100.0,91.15671641791045,,98.828125,33.33333333333333,80.45977011494253,50.0,44.0,100.0,100.0
,78.02690582959642,80.0,61.702127659574465,100.0,90.93293368302736,0.0,95.9409594095941,80.0,78.02197802197803,0.0,43.333333333333336,100.0,100.0
,83.53413654618474,69.23076923076923,57.831325301204814,75.0,92.01349831271091,,96.57794676806084,100.0,81.60919540229885,100.0,52.0,100.0,100.0
,82.32758620689656,58.333333333333336,59.09090909090909,66.66666666666666,91.21166791323859,33.33333333333333,96.55172413793103,60.0,78.65168539325843,,60.0,100.0,100.0
0.0,77.04280155642024,80.0,67.56756756756756,0.0,91.38254027725739,100.0,98.44357976653697,100.0,73.68421052631578,66.66666666666666,57.692307692307686,100.0,100.0
66.66666666666666,76.95473251028807,92.3076923076923,63.2183908045977,33.33333333333333,91.37607799025122,50.0,97.66536964980544,71.42857142857143,76.92307692307693,100.0,66.66666666666666,100.0,100.0
50.0,81.92771084337349,69.23076923076923,59.55056179775281,100.0,91.84823441021788,0.0,96.55172413793103,71.42857142857143,82.14285714285714,50.0,69.56521739130434,100.0,100.0
,81.57894736842105,83.33333333333334,52.17391304347826,75.0,91.20059656972408,0.0,97.6923076923077,75.0,79.06976744186046,33.33333333333333,66.66666666666666,100.0,100.0
,81.22448979591836,87.5,66.66666666666666,100.0,92.05273069679849,100.0,96.62921348314607,75.0,78.88888888888889,100.0,60.0,100.0,100.0
50.0,82.08333333333333,53.84615384615385,61.458333333333336,80.0,91.62598573037927,0.0,97.6923076923077,80.0,73.91304347826086,100.0,68.42105263157895,100.0,100.0
100.0,80.1762114537445,70.0,64.8936170212766,100.0,91.02132435465768,0.0,98.80952380952381,40.0,77.90697674418605,50.0,47.72727272727273,100.0,50.0
,77.54237288135593,83.33333333333334,64.19753086419753,75.0,91.01081685938082,0.0,99.2094861660079,66.66666666666666,80.95238095238095,100.0,51.28205128205128,100.0,100.0
0.0,77.48917748917748,87.5,59.55056179775281,50.0,90.73865766779153,0.0,95.45454545454545,33.33333333333333,81.3953488372093,100.0,43.90243902439025,100.0,100.0
,84.32203389830508,78.57142857142857,70.58823529411765,100.0,92.08255159474672,0.0,95.5719557195572,100.0,75.53191489361703,100.0,62.857142857142854,100.0,100.0
0.0,81.85328185328186,73.33333333333333,66.26506024096386,33.33333333333333,92.34558544903373,0.0,96.93486590038314,80.0,77.27272727272727,100.0,55.00000000000001,100.0,100.0
0.0,83.1896551724138,83.33333333333334,68.35443037974683,66.66666666666666,90.64240623839585,,98.38709677419355,33.33333333333333,75.82417582417582,66.66666666666666,50.0,100.0,100.0
0.0,79.23076923076923,100.0,73.07692307692307,100.0,91.70750094232943,,98.44961240310077,66.66666666666666,83.33333333333334,50.0,52.77777777777778,100.0,100.0
0.0,78.60082304526749,66.66666666666666,62.37623762376238,100.0,91.90512048192771,0.0,99.2094861660079,100.0,73.62637362637363,100.0,62.96296296296296,100.0,100.0
,77.48091603053436,62.5,64.0,60.0,92.03338391502275,0.0,96.15384615384616,16.666666666666664,80.72289156626506,,53.57142857142857,100.0,100.0
,79.49790794979079,84.61538461538461,60.97560975609756,60.0,91.53301007086908,0.0,98.46743295019157,33.33333333333333,81.17647058823529,,72.0,100.0,100.0
100.0,77.54237288135593,66.66666666666666,67.07317073170732,60.0,91.2392362411082,50.0,97.68339768339769,80.0,74.15730337078652,75.0,40.0,100.0,100.0
0.0,78.92561983471074,81.81818181818183,63.26530612244898,50.0,91.31905298759865,,98.0544747081712,100.0,75.26881720430107,100.0,72.0,100.0,100.0
,79.03225806451613,77.77777777777779,66.26506024096386,25.0,91.09947643979058,50.0,97.68339768339769,75.0,76.13636363636364,100.0,50.0,100.0,
,79.59183673469387,72.72727272727273,61.79775280898876,50.0,91.93973634651601,33.33333333333333,97.35849056603773,25.0,74.19354838709677,100.0,54.166666666666664,100.0,100.0
,77.55905511811024,78.57142857142857,78.66666666666666,100.0,91.56671664167916,100.0,96.60377358490567,100.0,82.35294117647058,66.66666666666666,71.42857142857143,100.0,100.0
0.0,84.03361344537815,100.0,67.94871794871796,100.0,91.8260217472816,0.0,96.99248120300751,57.14285714285714,80.68181818181817,100.0,47.22222222222222,100.0,100.0
0.0,82.42677824267783,68.75,59.25925925925925,60.0,91.4638712092849,25.0,97.70114942528735,75.0,77.52808988764045,0.0,68.0,100.0,100.0
50.0,80.49792531120332,75.0,65.0,75.0,91.14680612626074,,98.84169884169884,100.0,74.44444444444444,100.0,64.0,100.0,100.0
0.0,80.5668016194332,81.81818181818183,57.42574257425742,75.0,91.63211458725971,0.0,97.6470588235294,0.0,73.91304347826086,100.0,55.172413793103445,100.0,100.0
,79.6812749003984,75.0,67.07317073170732,100.0,91.22479462285288,100.0,96.22641509433963,100.0,87.01298701298701,100.0,43.47826086956522,100.0,100.0
100.0,81.19658119658119,81.81818181818183,68.0,0.0,91.10945087784835,0.0,96.52509652509652,100.0,74.46808510638297,66.66666666666666,46.875,100.0,100.0
0.0,78.62903225806451,70.0,68.83116883116884,75.0,91.49494192581491,0.0,98.08429118773945,50.0,75.0,50.0,57.14285714285714,100.0,100.0
,81.77777777777779,84.61538461538461,75.0,66.66666666666666,91.04089219330855,33.33333333333333,97.73584905660377,100.0,76.47058823529412,100.0,57.57575757575758,100.0,100.0
,82.84518828451883,66.66666666666666,61.44578313253012,100.0,91.87664535539678,100.0,98.0392156862745,100.0,69.0,75.0,57.57575757575758,100.0,
,78.33333333333333,88.88888888888889,63.91752577319587,80.0,91.70731707317074,0.0,98.83268482490273,40.0,79.54545454545455,100.0,60.0,100.0,100.0
,78.16091954022988,69.23076923076923,67.07317073170732,80.0,92.20287660862982,0.0,97.28682170542635,87.5,75.55555555555556,,61.111111111111114,100.0,100.0
,81.02766798418972,77.77777777777779,62.244897959183675,66.66666666666666,91.84988627748294,0.0,98.07692307692307,50.0,72.63157894736842,,52.77777777777778,100.0,100.0
0.0,78.54251012145748,91.66666666666666,63.51351351351351,100.0,91.2490650710546,40.0,96.52509652509652,80.0,78.4090909090909,100.0,65.51724137931035,100.0,100.0
,79.32489451476793,75.0,62.5,33.33333333333333,91.33858267716536,16.666666666666664,97.68339768339769,80.0,78.26086956521739,,60.0,100.0,100.0
,78.35820895522389,81.81818181818183,59.09090909090909,100.0,92.26686884003033,0.0,94.67680608365019,100.0,81.81818181818183,66.66666666666666,58.06451612903226,100.0,100.0
,82.57261410788381,63.63636363636363,65.93406593406593,66.66666666666666,92.17687074829932,0.0,96.92307692307692,100.0,73.68421052631578,100.0,60.526315789473685,100.0,100.0
,80.0,100.0,55.434782608695656,75.0,91.32061354283576,,98.06201550387597,60.0,73.11827956989248,66.66666666666666,58.82352941176471,66.66666666666666,100.0
,79.40074906367042,100.0,69.86301369863014,,91.54824233358265,33.33333333333333,98.82352941176471,100.0,80.95238095238095,100.0,40.909090909090914,100.0,100.0
0.0,82.74509803921568,63.63636363636363,63.85542168674698,60.0,91.58211198797444,0.0,97.25490196078431,66.66666666666666,82.55813953488372,75.0,57.57575757575758,100.0,100.0
,77.77777777777779,66.66666666666666,68.6046511627907,60.0,91.22609673790775,33.33333333333333,98.06201550387597,87.5,82.05128205128204,0.0,51.42857142857142,100.0,100.0
0.0,79.39914163090128,75.0,60.91954022988506,50.0,91.06207928197458,0.0,97.27626459143968,0.0,76.34408602150538,100.0,54.83870967741935,100.0,
,81.32780082987551,75.0,60.0,75.0,91.21951219512195,,97.33840304182509,60.0,77.77777777777779,100.0,42.857142857142854,100.0,100.0
100.0,80.89430894308943,80.0,67.41573033707866,100.0,91.98042168674698,0.0,98.46743295019157,66.66666666666666,76.59574468085107,100.0,61.29032258064516,100.0,
50.0,80.6949806949807,71.42857142857143,67.41573033707866,75.0,91.49338374291115,0.0,97.3076923076923,20.0,73.91304347826086,,50.0,100.0,100.0
,80.49792531120332,55.55555555555556,63.33333333333333,33.33333333333333,91.14114114114115,100.0,96.49805447470817,60.0,70.52631578947368,100.0,50.0,100.0,100.0
,82.15767634854771,68.75,63.41463414634146,75.0,91.78288729739917,25.0,96.26865671641791,66.66666666666666,78.02197802197803,100.0,57.57575757575758,100.0,100.0
,76.6798418972332,83.33333333333334,60.215053763440864,75.0,91.9000757002271,0.0,97.33840304182509,57.14285714285714,77.77777777777779,100.0,58.06451612903226,100.0,100.0
0.0,79.73568281938326,55.55555555555556,67.04545454545455,75.0,90.8920539730135,0.0,97.28682170542635,37.5,70.58823529411765,100.0,48.38709677419355,100.0,100.0
,74.23076923076923,58.333333333333336,70.0,50.0,91.50622876557192,0.0,96.56488549618321,100.0,74.19354838709677,100.0,53.125,100.0,
0.0,79.32489451476793,62.5,67.04545454545455,50.0,91.44687264506406,0.0,96.92307692307692,33.33333333333333,72.3404255319149,100.0,59.45945945945946,100.0,100.0
,79.06976744186046,71.42857142857143,64.0,100.0,91.06145251396647,0.0,98.03149606299213,33.33333333333333,86.25,100.0,61.53846153846154,100.0,100.0
0.0,80.15873015873017,83.33333333333334,68.6046511627907,100.0,92.22601441031475,25.0,94.81481481481482,75.0,74.44444444444444,66.66666666666666,53.125,100.0,100.0
0.0,82.27848101265823,58.333333333333336,65.38461538461539,33.33333333333333,91.35618479880775,33.33333333333333,96.45669291338582,100.0,80.68181818181817,100.0,59.375,100.0,100.0
0.0,77.77777777777779,83.33333333333334,56.81818181818182,33.33333333333333,91.31411456383377,,98.09160305343512,71.42857142857143,78.65168539325843,100.0,51.724137931034484,100.0,100.0
,83.05084745762711,85.71428571428571,64.44444444444444,50.0,91.31736526946108,0.0,97.24409448818898,75.0,78.65168539325843,75.0,51.85185185185185,100.0,100.0
,78.43137254901961,75.0,63.52941176470588,66.66666666666666,92.07248018120046,0.0,97.76119402985076,66.66666666666666,80.68181818181817,66.66666666666666,70.37037037037037,100.0,100.0
,78.92561983471074,73.33333333333333,64.77272727272727,66.66666666666666,91.5445321307779,33.33333333333333,96.56488549618321,57.14285714285714,84.14634146341463,100.0,55.172413793103445,100.0,100.0
,79.6812749003984,80.0,65.11627906976744,50.0,91.6635231987929,33.33333333333333,94.33962264150944,80.0,81.92771084337349,100.0,36.36363636363637,100.0,100.0
,81.85483870967742,69.23076923076923,63.1578947368421,100.0,91.64785553047405,0.0,98.0392156862745,50.0,80.0,33.33333333333333,41.935483870967744,100.0,100.0
0.0,75.29411764705883,53.333333333333336,64.8936170212766,25.0,91.70140204622963,0.0,98.4251968503937,80.0,75.28089887640449,50.0,48.717948717948715,100.0,100.0
,81.33333333333333,75.0,64.19753086419753,80.0,90.87875417130145,100.0,98.81889763779527,33.33333333333333,78.16091954022988,100.0,48.275862068965516,100.0,100.0
50.0,78.76447876447877,80.0,67.90123456790124,75.0,91.9713531850735,,98.03149606299213,75.0,76.92307692307693,100.0,44.44444444444444,100.0,100.0
,80.4,66.66666666666666,65.85365853658537,66.66666666666666,91.54508043396933,33.33333333333333,96.95817490494296,60.0,84.61538461538461,100.0,59.09090909090909,100.0,100.0
,78.57142857142857,70.0,69.76744186046511,60.0,91.68539325842696,33.33333333333333,96.93486590038314,66.66666666666666,84.33734939759037,80.0,80.0,100.0,100.0
